Datetime,chan0,chan1,chan2,chan3
2020-11-15 21:42:15.208,1.696802,1.732178,1.742178,1.733928
2020-11-15 21:42:15.222,1.695302,1.725803,1.739053,1.733053
2020-11-15 21:42:15.237,1.697802,1.728428,1.734303,1.733303
2020-11-15 21:42:15.251,1.697302,1.732428,1.737928,1.733553
2020-11-15 21:42:15.265,1.694677,1.730178,1.739803,1.734303
2020-11-15 21:42:15.279,1.695927,1.728678,1.731803,1.733428
2020-11-15 21:42:15.294,1.697052,1.732553,1.734428,1.732803
2020-11-15 21:42:15.308,1.695302,1.731803,1.740178,1.733678
2020-11-15 21:42:15.322,1.695052,1.727178,1.738178,1.733928
2020-11-15 21:42:15.337,1.697177,1.728678,1.734803,1.732928
2020-11-15 21:42:15.351,1.696052,1.731428,1.740678,1.732428
2020-11-15 21:42:15.365,1.695677,1.729178,1.739803,1.734053
2020-11-15 21:42:15.379,1.695802,1.727678,1.734053,1.733428
2020-11-15 21:42:15.394,1.696052,1.733803,1.735928,1.733053
2020-11-15 21:42:15.408,1.695052,1.732053,1.739678,1.733178
2020-11-15 21:42:15.422,1.695177,1.728053,1.735053,1.733678
2020-11-15 21:42:15.436,1.697177,1.729303,1.735053,1.732928
2020-11-15 21:42:15.451,1.696552,1.731803,1.743303,1.734053
2020-11-15 21:42:15.465,1.695302,1.726428,1.739428,1.733803
2020-11-15 21:42:15.479,1.696427,1.728178,1.732928,1.732928
2020-11-15 21:42:15.493,1.696177,1.732178,1.737053,1.733053
2020-11-15 21:42:15.508,1.694427,1.730803,1.739053,1.733928
2020-11-15 21:42:15.522,1.695052,1.727678,1.735428,1.733428
2020-11-15 21:42:15.536,1.696302,1.731678,1.734803,1.732678
2020-11-15 21:42:15.550,1.696177,1.731303,1.743303,1.733178
2020-11-15 21:42:15.565,1.694677,1.726678,1.739178,1.734053
2020-11-15 21:42:15.579,1.697302,1.728178,1.734428,1.733053
2020-11-15 21:42:15.593,1.696302,1.733053,1.736803,1.732428
2020-11-15 21:42:15.607,1.694427,1.729803,1.739678,1.733678
2020-11-15 21:42:15.622,1.695177,1.728178,1.732678,1.733678
2020-11-15 21:42:15.636,1.696677,1.731053,1.734178,1.733428
2020-11-15 21:42:15.650,1.695427,1.731053,1.740178,1.733053
2020-11-15 21:42:15.667,1.694927,1.730678,1.739178,1.734553
2020-11-15 21:42:15.683,1.695302,1.727053,1.738803,1.733678
2020-11-15 21:42:15.700,1.696427,1.727803,1.732178,1.734053
2020-11-15 21:42:15.716,1.696552,1.729553,1.734553,1.732428
2020-11-15 21:42:15.733,1.696302,1.731553,1.735803,1.733303
2020-11-15 21:42:15.749,1.695302,1.731803,1.740803,1.733803
2020-11-15 21:42:15.766,1.695177,1.729553,1.739428,1.734178
2020-11-15 21:42:15.783,1.694677,1.725928,1.738803,1.733303
2020-11-15 21:42:15.801,1.696677,1.728303,1.732303,1.733553
2020-11-15 21:42:15.818,1.697052,1.728428,1.734178,1.733303
2020-11-15 21:42:15.835,1.696802,1.732803,1.735178,1.732553
2020-11-15 21:42:15.852,1.696677,1.731553,1.740178,1.733178
2020-11-15 21:42:15.869,1.694677,1.730678,1.740553,1.733428
2020-11-15 21:42:15.886,1.695427,1.727053,1.739553,1.734553
2020-11-15 21:42:15.903,1.696052,1.728553,1.738053,1.734678
2020-11-15 21:42:15.920,1.696927,1.728053,1.731303,1.733803
2020-11-15 21:42:15.937,1.696302,1.730303,1.734553,1.733178
2020-11-15 21:42:15.954,1.696302,1.732303,1.734803,1.733678
2020-11-15 21:42:15.971,1.695677,1.732053,1.740178,1.733303
2020-11-15 21:42:15.988,1.695802,1.731178,1.739803,1.733428
2020-11-15 21:42:16.006,1.695177,1.726303,1.739428,1.733803
2020-11-15 21:42:16.023,1.695927,1.727678,1.733428,1.733178
2020-11-15 21:42:16.040,1.697302,1.727428,1.734928,1.733928
2020-11-15 21:42:16.057,1.696802,1.730928,1.734928,1.733053
2020-11-15 21:42:16.074,1.696552,1.732428,1.737053,1.732678
2020-11-15 21:42:16.091,1.694427,1.732303,1.741928,1.733553
2020-11-15 21:42:16.108,1.694677,1.728553,1.739928,1.733803
2020-11-15 21:42:16.125,1.695177,1.727678,1.739303,1.733553
2020-11-15 21:42:16.142,1.696052,1.728678,1.732178,1.734178
2020-11-15 21:42:16.159,1.697177,1.729178,1.735178,1.733803
2020-11-15 21:42:16.176,1.696427,1.733553,1.735303,1.732928
2020-11-15 21:42:16.193,1.696427,1.731928,1.741303,1.732928
2020-11-15 21:42:16.210,1.695427,1.731803,1.740178,1.732928
2020-11-15 21:42:16.227,1.695677,1.727303,1.740178,1.733678
2020-11-15 21:42:16.244,1.696052,1.728678,1.736553,1.733428
2020-11-15 21:42:16.261,1.697052,1.728303,1.733053,1.733803
2020-11-15 21:42:16.278,1.697052,1.732678,1.734803,1.732928
2020-11-15 21:42:16.296,1.696927,1.732053,1.735553,1.733178
2020-11-15 21:42:16.313,1.695802,1.731428,1.742428,1.733303
2020-11-15 21:42:16.330,1.694302,1.730053,1.739178,1.734303
2020-11-15 21:42:16.347,1.694927,1.726053,1.738803,1.734053
2020-11-15 21:42:16.364,1.696427,1.728553,1.732928,1.734053
2020-11-15 21:42:16.381,1.696927,1.728428,1.734178,1.732803
2020-11-15 21:42:16.398,1.696802,1.732303,1.734803,1.732803
2020-11-15 21:42:16.415,1.697302,1.731428,1.739303,1.732928
2020-11-15 21:42:16.432,1.694927,1.731803,1.740303,1.733803
2020-11-15 21:42:16.449,1.695427,1.727428,1.740303,1.734303
2020-11-15 21:42:16.466,1.695427,1.728553,1.738553,1.732803
2020-11-15 21:42:16.490,1.695552,1.730553,1.739803,1.734428
2020-11-15 21:42:16.508,1.695302,1.725428,1.740053,1.733303
2020-11-15 21:42:16.525,1.695677,1.728553,1.734928,1.734553
2020-11-15 21:42:16.542,1.697677,1.729053,1.733553,1.733678
2020-11-15 21:42:16.559,1.696677,1.732803,1.734803,1.733053
2020-11-15 21:42:16.576,1.696427,1.732053,1.738053,1.732803
2020-11-15 21:42:16.593,1.695927,1.731928,1.740428,1.733678
2020-11-15 21:42:16.609,1.695427,1.727803,1.740053,1.734428
2020-11-15 21:42:16.626,1.696052,1.728928,1.735428,1.734303
2020-11-15 21:42:16.642,1.697552,1.727803,1.734678,1.733553
2020-11-15 21:42:16.659,1.696552,1.733803,1.735803,1.733428
2020-11-15 21:42:16.675,1.696052,1.731303,1.741928,1.733553
2020-11-15 21:42:16.692,1.695552,1.731053,1.740178,1.733428
2020-11-15 21:42:16.709,1.695177,1.727303,1.739928,1.734053
2020-11-15 21:42:16.726,1.696302,1.728053,1.736303,1.733178
2020-11-15 21:42:16.743,1.697177,1.728303,1.733928,1.733678
2020-11-15 21:42:16.761,1.697427,1.732678,1.735178,1.733053
2020-11-15 21:42:16.778,1.697052,1.732553,1.735928,1.734178
2020-11-15 21:42:16.795,1.696302,1.731553,1.742303,1.733303
2020-11-15 21:42:16.812,1.695177,1.730678,1.739803,1.734303
2020-11-15 21:42:16.829,1.695427,1.726178,1.739553,1.734303
2020-11-15 21:42:16.846,1.695177,1.728428,1.731928,1.734178
2020-11-15 21:42:16.863,1.696677,1.728928,1.734803,1.733803
2020-11-15 21:42:16.880,1.697052,1.733178,1.735303,1.733053
2020-11-15 21:42:16.897,1.696427,1.731803,1.739553,1.733303
2020-11-15 21:42:16.914,1.695052,1.731553,1.739678,1.732428
2020-11-15 21:42:16.931,1.695927,1.729303,1.740178,1.733303
2020-11-15 21:42:16.948,1.695427,1.725803,1.738303,1.733553
2020-11-15 21:42:16.965,1.696427,1.728678,1.732053,1.734178
2020-11-15 21:42:16.982,1.697302,1.730553,1.733928,1.733053
2020-11-15 21:42:17.000,1.696927,1.733178,1.734553,1.733053
2020-11-15 21:42:17.017,1.695302,1.731553,1.739928,1.733553
2020-11-15 21:42:17.034,1.694302,1.731303,1.739428,1.733928
2020-11-15 21:42:17.051,1.695552,1.726803,1.740053,1.733553
2020-11-15 21:42:17.068,1.696052,1.728053,1.733803,1.733928
2020-11-15 21:42:17.085,1.697427,1.728303,1.735428,1.733678
2020-11-15 21:42:17.102,1.696552,1.730928,1.735178,1.732678
2020-11-15 21:42:17.119,1.696927,1.732053,1.737303,1.732928
2020-11-15 21:42:17.136,1.695302,1.730928,1.742803,1.733428
2020-11-15 21:42:17.153,1.695177,1.728928,1.739553,1.734678
2020-11-15 21:42:17.170,1.695177,1.726928,1.738803,1.733678
2020-11-15 21:42:17.187,1.695677,1.728303,1.733053,1.734053
2020-11-15 21:42:17.204,1.697302,1.729428,1.734428,1.733928
2020-11-15 21:42:17.221,1.696427,1.734053,1.734178,1.733553
2020-11-15 21:42:17.238,1.695552,1.732053,1.737428,1.733928
2020-11-15 21:42:17.255,1.694427,1.732303,1.740303,1.732928
2020-11-15 21:42:17.272,1.695552,1.727678,1.739678,1.733928
2020-11-15 21:42:17.290,1.695677,1.728303,1.737178,1.733928
2020-11-15 21:42:17.307,1.697677,1.727928,1.733678,1.733928
2020-11-15 21:42:17.325,1.697552,1.728303,1.734803,1.733053
2020-11-15 21:42:17.342,1.696552,1.732428,1.735178,1.732553
2020-11-15 21:42:17.359,1.696677,1.731303,1.738428,1.733553
2020-11-15 21:42:17.376,1.694927,1.731553,1.741053,1.733053
2020-11-15 21:42:17.393,1.695427,1.727803,1.740178,1.734553
2020-11-15 21:42:17.411,1.695802,1.726053,1.738803,1.733428
2020-11-15 21:42:17.428,1.696552,1.728178,1.732678,1.733553
2020-11-15 21:42:17.445,1.696552,1.728803,1.735053,1.733178
2020-11-15 21:42:17.462,1.697302,1.732678,1.734928,1.733178
2020-11-15 21:42:17.479,1.696427,1.731803,1.739678,1.732928
2020-11-15 21:42:17.496,1.694677,1.731553,1.740053,1.733928
2020-11-15 21:42:17.513,1.695552,1.727303,1.739678,1.733928
2020-11-15 21:42:17.530,1.695302,1.727928,1.738303,1.733803
2020-11-15 21:42:17.547,1.696552,1.727803,1.731053,1.734053
2020-11-15 21:42:17.564,1.696177,1.730553,1.735303,1.733178
2020-11-15 21:42:17.581,1.696927,1.733053,1.736678,1.733303
2020-11-15 21:42:17.599,1.695552,1.731428,1.743428,1.733178
2020-11-15 21:42:17.616,1.696177,1.730678,1.740178,1.733928
2020-11-15 21:42:17.633,1.695927,1.726553,1.739553,1.733678
2020-11-15 21:42:17.650,1.695677,1.727678,1.734553,1.733553
2020-11-15 21:42:17.667,1.697802,1.727428,1.735553,1.733428
2020-11-15 21:42:17.684,1.696802,1.733678,1.734928,1.734053
2020-11-15 21:42:17.701,1.696802,1.732178,1.736428,1.733303
2020-11-15 21:42:17.718,1.694677,1.731928,1.742553,1.733928
2020-11-15 21:42:17.735,1.695427,1.728678,1.739178,1.734178
2020-11-15 21:42:17.752,1.695302,1.727928,1.738428,1.734428
2020-11-15 21:42:17.769,1.695677,1.728553,1.732053,1.733678
2020-11-15 21:42:17.786,1.696552,1.729303,1.735303,1.734303
2020-11-15 21:42:17.803,1.697052,1.734053,1.736053,1.733553
2020-11-15 21:42:17.820,1.695927,1.731178,1.740803,1.733678
2020-11-15 21:42:17.837,1.695052,1.731928,1.740303,1.733428
2020-11-15 21:42:17.854,1.696177,1.727928,1.739928,1.734053
2020-11-15 21:42:17.871,1.695802,1.727803,1.737178,1.733553
2020-11-15 21:42:17.889,1.697677,1.727803,1.733553,1.733428
2020-11-15 21:42:17.906,1.697177,1.731303,1.734928,1.733178
2020-11-15 21:42:17.923,1.696677,1.732303,1.736303,1.733178
2020-11-15 21:42:17.940,1.696427,1.732303,1.741428,1.733553
2020-11-15 21:42:17.957,1.694927,1.731053,1.739928,1.734428
2020-11-15 21:42:17.974,1.694927,1.726303,1.739678,1.734053
2020-11-15 21:42:17.991,1.696177,1.728678,1.733053,1.734053
2020-11-15 21:42:18.008,1.696802,1.728803,1.734803,1.733928
2020-11-15 21:42:18.025,1.697427,1.732803,1.734928,1.733428
2020-11-15 21:42:18.042,1.697052,1.732178,1.738678,1.732928
2020-11-15 21:42:18.059,1.695177,1.731428,1.741053,1.733178
2020-11-15 21:42:18.076,1.695552,1.727928,1.739803,1.734928
2020-11-15 21:42:18.093,1.695677,1.728303,1.737928,1.733928
2020-11-15 21:42:18.110,1.696427,1.728428,1.732053,1.734053
2020-11-15 21:42:18.127,1.696802,1.730428,1.734678,1.732553
2020-11-15 21:42:18.145,1.696677,1.732928,1.734553,1.733178
2020-11-15 21:42:18.162,1.696927,1.732553,1.740053,1.734053
2020-11-15 21:42:18.179,1.694677,1.731178,1.739803,1.732678
2020-11-15 21:42:18.196,1.695802,1.729678,1.739803,1.734178
2020-11-15 21:42:18.214,1.695552,1.726553,1.738303,1.733553
2020-11-15 21:42:18.231,1.696677,1.728303,1.732053,1.733803
2020-11-15 21:42:18.248,1.697177,1.730428,1.734553,1.732553
2020-11-15 21:42:18.265,1.697552,1.733178,1.735303,1.733303
2020-11-15 21:42:18.282,1.695802,1.732053,1.740053,1.733678
2020-11-15 21:42:18.299,1.694927,1.730803,1.739428,1.734303
2020-11-15 21:42:18.316,1.695677,1.727678,1.739053,1.733928
2020-11-15 21:42:18.333,1.695177,1.727678,1.733928,1.734678
2020-11-15 21:42:18.350,1.698052,1.727803,1.734928,1.733678
2020-11-15 21:42:18.367,1.697302,1.731303,1.735803,1.733178
2020-11-15 21:42:18.384,1.696927,1.732803,1.737178,1.733178
2020-11-15 21:42:18.401,1.696052,1.731803,1.743428,1.732553
2020-11-15 21:42:18.418,1.695552,1.730553,1.740303,1.734178
2020-11-15 21:42:18.435,1.695927,1.727803,1.739428,1.734428
2020-11-15 21:42:18.452,1.695177,1.728678,1.732428,1.733928
2020-11-15 21:42:18.469,1.697302,1.728553,1.734553,1.733428
2020-11-15 21:42:18.486,1.696802,1.733928,1.734678,1.733053
2020-11-15 21:42:18.503,1.696177,1.731803,1.741678,1.733428
2020-11-15 21:42:18.520,1.694677,1.732053,1.740428,1.733803
2020-11-15 21:42:18.537,1.695802,1.728303,1.740553,1.734803
2020-11-15 21:42:18.554,1.696177,1.728553,1.737428,1.733678
2020-11-15 21:42:18.571,1.696802,1.728428,1.733428,1.733428
2020-11-15 21:42:18.588,1.697427,1.728928,1.735178,1.733303
2020-11-15 21:42:18.605,1.697302,1.732053,1.735928,1.733303
2020-11-15 21:42:18.622,1.695927,1.732303,1.741553,1.733428
2020-11-15 21:42:18.639,1.694677,1.730428,1.739678,1.733928
2020-11-15 21:42:18.656,1.695052,1.725803,1.740553,1.733553
2020-11-15 21:42:18.673,1.695302,1.728553,1.733553,1.733678
2020-11-15 21:42:18.690,1.697302,1.728678,1.734803,1.733303
2020-11-15 21:42:18.708,1.697302,1.732678,1.734803,1.732553
2020-11-15 21:42:18.725,1.696177,1.732178,1.739178,1.732928
2020-11-15 21:42:18.742,1.695927,1.731678,1.741553,1.733053
2020-11-15 21:42:18.759,1.695802,1.729678,1.740178,1.734178
2020-11-15 21:42:18.776,1.695052,1.726053,1.738678,1.732803
2020-11-15 21:42:18.793,1.696677,1.728303,1.732428,1.734178
2020-11-15 21:42:18.810,1.697052,1.730178,1.734678,1.733553
2020-11-15 21:42:18.827,1.697052,1.734053,1.734553,1.733053
2020-11-15 21:42:18.844,1.696052,1.731428,1.739053,1.733678
2020-11-15 21:42:18.861,1.694052,1.731053,1.739553,1.733428
2020-11-15 21:42:18.878,1.695802,1.728053,1.739678,1.734428
2020-11-15 21:42:18.895,1.695427,1.727803,1.735053,1.733928
2020-11-15 21:42:18.912,1.697302,1.728303,1.734928,1.734303
2020-11-15 21:42:18.929,1.697302,1.730428,1.734553,1.732678
2020-11-15 21:42:18.946,1.696552,1.732928,1.736428,1.732553
2020-11-15 21:42:18.963,1.695552,1.731178,1.740178,1.733428
2020-11-15 21:42:18.982,1.694802,1.731303,1.739678,1.734303
2020-11-15 21:42:18.999,1.696177,1.726928,1.739303,1.733928
2020-11-15 21:42:19.016,1.695302,1.728178,1.737803,1.733928
2020-11-15 21:42:19.033,1.697052,1.728428,1.732053,1.734053
2020-11-15 21:42:19.050,1.696927,1.731928,1.734178,1.733178
2020-11-15 21:42:19.067,1.696802,1.732553,1.734928,1.733053
2020-11-15 21:42:19.084,1.695927,1.732053,1.743303,1.732428
2020-11-15 21:42:19.101,1.695552,1.731053,1.739928,1.733553
2020-11-15 21:42:19.118,1.695302,1.726553,1.739678,1.734053
2020-11-15 21:42:19.135,1.696552,1.728303,1.733678,1.733678
2020-11-15 21:42:19.152,1.697552,1.728303,1.734928,1.733678
2020-11-15 21:42:19.169,1.696677,1.731428,1.734928,1.732928
2020-11-15 21:42:19.186,1.697052,1.731053,1.737428,1.733803
2020-11-15 21:42:19.203,1.694552,1.731928,1.742303,1.733178
2020-11-15 21:42:19.220,1.695052,1.728928,1.739303,1.733928
2020-11-15 21:42:19.237,1.695302,1.728303,1.738428,1.734678
2020-11-15 21:42:19.254,1.696427,1.728678,1.732178,1.733553
2020-11-15 21:42:19.271,1.696177,1.729553,1.734553,1.732928
2020-11-15 21:42:19.288,1.696552,1.734428,1.734303,1.733803
2020-11-15 21:42:19.306,1.695802,1.731928,1.741678,1.732928
2020-11-15 21:42:19.323,1.695177,1.731928,1.740178,1.733428
2020-11-15 21:42:19.340,1.695052,1.727428,1.739928,1.734178
2020-11-15 21:42:19.357,1.696177,1.728178,1.736178,1.734428
2020-11-15 21:42:19.374,1.697427,1.728303,1.733678,1.733678
2020-11-15 21:42:19.391,1.696927,1.729803,1.735178,1.732303
2020-11-15 21:42:19.408,1.696677,1.733053,1.736428,1.733428
2020-11-15 21:42:19.425,1.696052,1.731803,1.742303,1.733553
2020-11-15 21:42:19.442,1.695427,1.730178,1.739803,1.733803
2020-11-15 21:42:19.459,1.695052,1.725678,1.740053,1.733928
2020-11-15 21:42:19.476,1.695427,1.728678,1.735178,1.734303
2020-11-15 21:42:19.493,1.697427,1.728678,1.734678,1.733928
2020-11-15 21:42:19.510,1.696802,1.732678,1.735053,1.732303
2020-11-15 21:42:19.527,1.696427,1.731928,1.740053,1.733303
2020-11-15 21:42:19.544,1.695052,1.732053,1.741053,1.733178
2020-11-15 21:42:19.561,1.695802,1.730053,1.739803,1.733303
2020-11-15 21:42:19.578,1.695427,1.726178,1.738678,1.734178
2020-11-15 21:42:19.595,1.697302,1.727553,1.731428,1.733428
2020-11-15 21:42:19.612,1.696677,1.730303,1.734928,1.733303
2020-11-15 21:42:19.629,1.696552,1.733428,1.735553,1.733428
2020-11-15 21:42:19.646,1.697052,1.731803,1.740553,1.733553
2020-11-15 21:42:19.663,1.694677,1.731303,1.739428,1.733053
2020-11-15 21:42:19.680,1.695427,1.727178,1.739178,1.734428
2020-11-15 21:42:19.698,1.695052,1.727928,1.737928,1.734053
2020-11-15 21:42:19.715,1.697052,1.728053,1.732053,1.734428
2020-11-15 21:42:19.732,1.697052,1.731178,1.734928,1.733553
2020-11-15 21:42:19.749,1.696927,1.733178,1.735303,1.733553
2020-11-15 21:42:19.766,1.696302,1.732178,1.741053,1.733303
2020-11-15 21:42:19.783,1.695302,1.731428,1.739178,1.732803
2020-11-15 21:42:19.801,1.695177,1.728678,1.740553,1.733803
2020-11-15 21:42:19.819,1.696052,1.728428,1.737553,1.733803
2020-11-15 21:42:19.836,1.697052,1.727928,1.733053,1.733553
2020-11-15 21:42:19.853,1.696802,1.729303,1.734928,1.732678
2020-11-15 21:42:19.870,1.696552,1.733303,1.736303,1.733178
2020-11-15 21:42:19.887,1.696052,1.731053,1.742428,1.733303
2020-11-15 21:42:19.904,1.695177,1.730303,1.740178,1.734178
2020-11-15 21:42:19.921,1.695177,1.725428,1.739428,1.734053
2020-11-15 21:42:19.938,1.695552,1.728678,1.735678,1.733678
2020-11-15 21:42:19.955,1.696927,1.728303,1.733553,1.734303
2020-11-15 21:42:19.972,1.696552,1.732928,1.734303,1.733178
2020-11-15 21:42:19.989,1.696177,1.731678,1.737928,1.733428
2020-11-15 21:42:20.006,1.695427,1.731928,1.741053,1.733803
2020-11-15 21:42:20.023,1.695302,1.730678,1.740178,1.734053
2020-11-15 21:42:20.040,1.695302,1.726053,1.739178,1.733553
2020-11-15 21:42:20.057,1.696552,1.728303,1.731928,1.733553
2020-11-15 21:42:20.074,1.696552,1.728178,1.734928,1.733303
2020-11-15 21:42:20.091,1.696677,1.731928,1.734428,1.732303
2020-11-15 21:42:20.108,1.695927,1.731303,1.739803,1.734053
2020-11-15 21:42:20.125,1.694427,1.731178,1.740803,1.733553
2020-11-15 21:42:20.142,1.695552,1.727053,1.740303,1.734178
2020-11-15 21:42:20.159,1.695302,1.728428,1.738553,1.734303
2020-11-15 21:42:20.176,1.696302,1.728428,1.731553,1.734178
2020-11-15 21:42:20.194,1.696427,1.729928,1.735053,1.733678
2020-11-15 21:42:20.211,1.696677,1.733178,1.736553,1.733678
2020-11-15 21:42:20.228,1.695177,1.731678,1.743303,1.732678
2020-11-15 21:42:20.245,1.695552,1.730928,1.740053,1.733803
2020-11-15 21:42:20.262,1.695302,1.726428,1.739553,1.734178
2020-11-15 21:42:20.279,1.695802,1.727553,1.734553,1.733428
2020-11-15 21:42:20.296,1.697802,1.727928,1.734178,1.734053
2020-11-15 21:42:20.313,1.696802,1.733428,1.735178,1.733303
2020-11-15 21:42:20.330,1.696427,1.731678,1.736178,1.733053
2020-11-15 21:42:20.347,1.695427,1.731803,1.742928,1.733678
2020-11-15 21:42:20.364,1.695427,1.729428,1.739303,1.734428
2020-11-15 21:42:20.381,1.694927,1.727178,1.738178,1.733553
2020-11-15 21:42:20.398,1.696427,1.728303,1.731553,1.733928
2020-11-15 21:42:20.415,1.696677,1.729053,1.734553,1.733428
2020-11-15 21:42:20.432,1.696802,1.733303,1.735303,1.733803
2020-11-15 21:42:20.449,1.696177,1.731303,1.740553,1.732928
2020-11-15 21:42:20.466,1.694927,1.731803,1.739928,1.732928
2020-11-15 21:42:20.483,1.696177,1.726928,1.739678,1.734303
2020-11-15 21:42:20.500,1.695677,1.728428,1.738553,1.734178
2020-11-15 21:42:20.517,1.696927,1.728053,1.731928,1.733928
2020-11-15 21:42:20.534,1.696927,1.731553,1.735178,1.732678
2020-11-15 21:42:20.551,1.696927,1.732178,1.735428,1.733428
2020-11-15 21:42:20.568,1.696177,1.731553,1.740928,1.733428
2020-11-15 21:42:20.585,1.695177,1.730803,1.739803,1.733303
2020-11-15 21:42:20.602,1.695552,1.725928,1.738928,1.733553
2020-11-15 21:42:20.619,1.696052,1.727428,1.736928,1.734178
2020-11-15 21:42:20.638,1.697552,1.728303,1.733428,1.733678
2020-11-15 21:42:20.655,1.696427,1.729553,1.735053,1.732428
2020-11-15 21:42:20.672,1.697177,1.734053,1.736803,1.732803
2020-11-15 21:42:20.689,1.695927,1.731553,1.741928,1.733303
2020-11-15 21:42:20.706,1.695677,1.730803,1.740178,1.733928
2020-11-15 21:42:20.723,1.695677,1.726053,1.739928,1.733928
2020-11-15 21:42:20.740,1.695802,1.728428,1.735178,1.733678
2020-11-15 21:42:20.757,1.697177,1.728178,1.734178,1.734053
2020-11-15 21:42:20.774,1.696302,1.732428,1.734553,1.733178
2020-11-15 21:42:20.791,1.696927,1.731803,1.739678,1.733053
2020-11-15 21:42:20.808,1.695302,1.731553,1.739928,1.733178
2020-11-15 21:42:20.825,1.694927,1.730178,1.740178,1.733303
2020-11-15 21:42:20.842,1.695177,1.726678,1.738553,1.733803
2020-11-15 21:42:20.859,1.696802,1.727928,1.732928,1.733053
2020-11-15 21:42:20.876,1.697052,1.729053,1.735428,1.732928
2020-11-15 21:42:20.893,1.697177,1.733553,1.734803,1.733303
2020-11-15 21:42:20.910,1.696302,1.732053,1.740053,1.733803
2020-11-15 21:42:20.927,1.694552,1.731428,1.739928,1.733553
2020-11-15 21:42:20.944,1.695552,1.727178,1.739178,1.734678
2020-11-15 21:42:20.961,1.695052,1.728178,1.737553,1.734303
2020-11-15 21:42:20.978,1.696302,1.728303,1.734553,1.733803
2020-11-15 21:42:20.995,1.697177,1.730428,1.735428,1.733553
2020-11-15 21:42:21.012,1.697052,1.732553,1.736303,1.733178
2020-11-15 21:42:21.029,1.695427,1.731428,1.743178,1.732053
2020-11-15 21:42:21.046,1.695552,1.729928,1.739553,1.733428
2020-11-15 21:42:21.063,1.696302,1.726553,1.739678,1.734178
2020-11-15 21:42:21.080,1.695802,1.727803,1.733553,1.734053
2020-11-15 21:42:21.098,1.697802,1.728803,1.735303,1.733928
2020-11-15 21:42:21.115,1.696552,1.733803,1.735428,1.733053
2020-11-15 21:42:21.132,1.696552,1.732178,1.737053,1.733178
2020-11-15 21:42:21.149,1.695302,1.731553,1.742678,1.734053
2020-11-15 21:42:21.166,1.695052,1.729178,1.739803,1.734553
2020-11-15 21:42:21.183,1.695052,1.728303,1.738553,1.733928
2020-11-15 21:42:21.200,1.697302,1.728053,1.731928,1.733803
2020-11-15 21:42:21.217,1.697052,1.729178,1.735303,1.733428
2020-11-15 21:42:21.234,1.696677,1.733303,1.735303,1.732678
2020-11-15 21:42:21.251,1.696302,1.731803,1.740928,1.733053
2020-11-15 21:42:21.268,1.694802,1.730803,1.739678,1.732428
2020-11-15 21:42:21.285,1.695552,1.727303,1.739553,1.734178
2020-11-15 21:42:21.302,1.695427,1.728303,1.736303,1.734178
2020-11-15 21:42:21.319,1.697177,1.728303,1.731928,1.733553
2020-11-15 21:42:21.336,1.696802,1.731678,1.734928,1.732553
2020-11-15 21:42:21.353,1.696927,1.731928,1.735678,1.733553
2020-11-15 21:42:21.370,1.695927,1.731678,1.741428,1.733178
2020-11-15 21:42:21.387,1.693677,1.730553,1.739178,1.733928
2020-11-15 21:42:21.404,1.695302,1.725928,1.739178,1.734053
2020-11-15 21:42:21.421,1.696302,1.728303,1.732928,1.733678
2020-11-15 21:42:21.438,1.697427,1.728053,1.734553,1.732803
2020-11-15 21:42:21.456,1.696552,1.729053,1.734803,1.732428
2020-11-15 21:42:21.474,1.697427,1.733803,1.736303,1.732928
2020-11-15 21:42:21.491,1.695802,1.731428,1.742428,1.733428
2020-11-15 21:42:21.508,1.695552,1.730053,1.740303,1.734303
2020-11-15 21:42:21.525,1.695427,1.725928,1.739553,1.733803
2020-11-15 21:42:21.542,1.695427,1.728803,1.735178,1.734428
2020-11-15 21:42:21.559,1.696802,1.728928,1.734303,1.732928
2020-11-15 21:42:21.576,1.696802,1.733178,1.734678,1.733178
2020-11-15 21:42:21.593,1.696427,1.732553,1.735553,1.733678
2020-11-15 21:42:21.610,1.694302,1.732053,1.739928,1.733178
2020-11-15 21:42:21.627,1.696052,1.729928,1.739678,1.733678
2020-11-15 21:42:21.644,1.695552,1.726428,1.738053,1.733303
2020-11-15 21:42:21.661,1.696802,1.728303,1.732053,1.733053
2020-11-15 21:42:21.678,1.696677,1.728678,1.734803,1.732803
2020-11-15 21:42:21.695,1.696552,1.733428,1.734553,1.733178
2020-11-15 21:42:21.712,1.696177,1.731303,1.740803,1.733428
2020-11-15 21:42:21.729,1.695052,1.732053,1.739678,1.733678
2020-11-15 21:42:21.746,1.695427,1.726678,1.739053,1.734053
2020-11-15 21:42:21.763,1.694927,1.727803,1.737553,1.733678
2020-11-15 21:42:21.780,1.696052,1.728553,1.731303,1.733928
2020-11-15 21:42:21.797,1.696427,1.731178,1.734803,1.733303
2020-11-15 21:42:21.814,1.696427,1.732678,1.736303,1.733053
2020-11-15 21:42:21.831,1.695427,1.731678,1.743178,1.733053
2020-11-15 21:42:21.848,1.695427,1.730303,1.739428,1.733928
2020-11-15 21:42:21.865,1.695302,1.725678,1.739053,1.733553
2020-11-15 21:42:21.882,1.696427,1.728178,1.733553,1.733553
2020-11-15 21:42:21.899,1.697052,1.728053,1.734428,1.733803
2020-11-15 21:42:21.916,1.696552,1.733303,1.735053,1.733053
2020-11-15 21:42:21.933,1.695927,1.731803,1.737553,1.733428
2020-11-15 21:42:21.950,1.694677,1.731803,1.741553,1.732803
2020-11-15 21:42:21.968,1.695302,1.728553,1.739178,1.734303
2020-11-15 21:42:21.985,1.695802,1.727928,1.738553,1.733928
2020-11-15 21:42:22.002,1.694927,1.728553,1.732428,1.734553
2020-11-15 21:42:22.019,1.697802,1.729678,1.734303,1.732803
2020-11-15 21:42:22.036,1.696302,1.733803,1.734928,1.732678
2020-11-15 21:42:22.053,1.696302,1.731178,1.737678,1.733053
2020-11-15 21:42:22.070,1.694927,1.731428,1.740678,1.733678
2020-11-15 21:42:22.087,1.694677,1.726928,1.739053,1.734678
2020-11-15 21:42:22.104,1.694802,1.728053,1.736178,1.733553
2020-11-15 21:42:22.121,1.697177,1.728428,1.733303,1.733553
2020-11-15 21:42:22.138,1.697302,1.729803,1.734928,1.732428
2020-11-15 21:42:22.155,1.697177,1.734053,1.736053,1.733178
2020-11-15 21:42:22.172,1.695427,1.730803,1.742428,1.732928
2020-11-15 21:42:22.190,1.695427,1.730678,1.740553,1.733053
2020-11-15 21:42:22.207,1.694802,1.725553,1.739553,1.733803
2020-11-15 21:42:22.224,1.695427,1.728178,1.734428,1.733803
2020-11-15 21:42:22.241,1.696802,1.728803,1.734178,1.732928
2020-11-15 21:42:22.258,1.696302,1.732928,1.735053,1.732803
2020-11-15 21:42:22.275,1.696302,1.732303,1.734678,1.732803
2020-11-15 21:42:22.293,1.695552,1.731053,1.739678,1.733303
2020-11-15 21:42:22.310,1.693927,1.731053,1.739178,1.733678
2020-11-15 21:42:22.327,1.695302,1.727053,1.739178,1.733928
2020-11-15 21:42:22.344,1.696052,1.728053,1.733678,1.733303
2020-11-15 21:42:22.361,1.698177,1.728303,1.734303,1.733553
2020-11-15 21:42:22.378,1.696677,1.730928,1.734803,1.732303
2020-11-15 21:42:22.395,1.695927,1.731928,1.737178,1.732803
2020-11-15 21:42:22.412,1.694802,1.731428,1.743178,1.733678
2020-11-15 21:42:22.429,1.695802,1.729178,1.739178,1.734053
2020-11-15 21:42:22.446,1.695052,1.727178,1.739428,1.734053
2020-11-15 21:42:22.463,1.695552,1.728303,1.733053,1.734053
2020-11-15 21:42:22.480,1.696802,1.729053,1.734178,1.733428
2020-11-15 21:42:22.497,1.696927,1.733553,1.734428,1.733428
2020-11-15 21:42:22.514,1.696427,1.731928,1.736553,1.733053
2020-11-15 21:42:22.531,1.694302,1.731928,1.739928,1.733553
2020-11-15 21:42:22.548,1.695677,1.728428,1.739553,1.734178
2020-11-15 21:42:22.565,1.695302,1.728178,1.737678,1.733678
2020-11-15 21:42:22.582,1.697427,1.727553,1.731928,1.733303
2020-11-15 21:42:22.599,1.696677,1.729053,1.735303,1.732678
2020-11-15 21:42:22.617,1.696552,1.733678,1.735303,1.733303
2020-11-15 21:42:22.634,1.695677,1.731553,1.741678,1.732928
2020-11-15 21:42:22.651,1.694677,1.731303,1.739928,1.734553
2020-11-15 21:42:22.668,1.694802,1.725928,1.739303,1.733678
2020-11-15 21:42:22.685,1.695927,1.728303,1.736178,1.734178
2020-11-15 21:42:22.702,1.697177,1.728928,1.732803,1.733553
2020-11-15 21:42:22.719,1.695927,1.732303,1.734428,1.731928
2020-11-15 21:42:22.736,1.696052,1.731678,1.737428,1.733303
2020-11-15 21:42:22.753,1.695177,1.732428,1.741928,1.733178
2020-11-15 21:42:22.770,1.695302,1.729928,1.739178,1.733678
2020-11-15 21:42:22.787,1.695052,1.725803,1.738553,1.732678
2020-11-15 21:42:22.804,1.696427,1.728553,1.733053,1.733428
2020-11-15 21:42:22.821,1.696052,1.727678,1.734553,1.733678
2020-11-15 21:42:22.838,1.696802,1.733678,1.734053,1.733428
2020-11-15 21:42:22.855,1.696552,1.731803,1.739053,1.733553
2020-11-15 21:42:22.872,1.694552,1.731178,1.740303,1.733303
2020-11-15 21:42:22.889,1.695302,1.726928,1.739678,1.734553
2020-11-15 21:42:22.906,1.695427,1.728928,1.738178,1.734053
2020-11-15 21:42:22.923,1.696052,1.728053,1.731928,1.733678
2020-11-15 21:42:22.940,1.696427,1.729803,1.734928,1.732678
2020-11-15 21:42:22.957,1.696802,1.732928,1.736053,1.732678
2020-11-15 21:42:22.974,1.695677,1.731053,1.742053,1.733428
2020-11-15 21:42:22.991,1.695677,1.731928,1.740303,1.734053
2020-11-15 21:42:23.008,1.695302,1.727553,1.740178,1.733678
2020-11-15 21:42:23.025,1.695927,1.727928,1.735053,1.734053
2020-11-15 21:42:23.043,1.697052,1.727553,1.734553,1.732803
2020-11-15 21:42:23.060,1.696927,1.729928,1.734678,1.733178
2020-11-15 21:42:23.077,1.696427,1.731803,1.736303,1.733553
2020-11-15 21:42:23.094,1.695552,1.732428,1.742803,1.732678
2020-11-15 21:42:23.112,1.694677,1.730803,1.739303,1.733803
2020-11-15 21:42:23.129,1.695427,1.726303,1.739303,1.733928
2020-11-15 21:42:23.146,1.695427,1.728053,1.737303,1.734553
2020-11-15 21:42:23.163,1.696927,1.728053,1.735553,1.733678
2020-11-15 21:42:23.180,1.697177,1.731428,1.734428,1.732053
2020-11-15 21:42:23.197,1.696802,1.732178,1.736928,1.733303
2020-11-15 21:42:23.214,1.693677,1.730428,1.743303,1.733553
2020-11-15 21:42:23.231,1.695677,1.730428,1.739803,1.732803
2020-11-15 21:42:23.248,1.695552,1.728053,1.739678,1.734053
2020-11-15 21:42:23.265,1.696427,1.728053,1.733053,1.734053
2020-11-15 21:42:23.282,1.697427,1.729553,1.734553,1.733803
2020-11-15 21:42:23.299,1.696677,1.733678,1.734553,1.733678
2020-11-15 21:42:23.316,1.696802,1.731928,1.737428,1.733553
2020-11-15 21:42:23.333,1.694927,1.731803,1.741553,1.733428
2020-11-15 21:42:23.350,1.695177,1.728428,1.739928,1.734053
2020-11-15 21:42:23.367,1.696052,1.728428,1.737553,1.733678
2020-11-15 21:42:23.384,1.697552,1.728303,1.732428,1.733553
2020-11-15 21:42:23.401,1.696677,1.729553,1.735428,1.732928
2020-11-15 21:42:23.418,1.696552,1.733678,1.735678,1.733303
2020-11-15 21:42:23.435,1.696052,1.732053,1.741928,1.732928
2020-11-15 21:42:23.452,1.695302,1.730428,1.739428,1.734553
2020-11-15 21:42:23.469,1.695427,1.726053,1.739553,1.733928
2020-11-15 21:42:23.486,1.695302,1.728553,1.735678,1.734428
2020-11-15 21:42:23.503,1.697177,1.728178,1.732428,1.733678
2020-11-15 21:42:23.520,1.695552,1.733053,1.735178,1.733053
2020-11-15 21:42:23.537,1.696427,1.732053,1.738303,1.732553
2020-11-15 21:42:23.554,1.694802,1.731428,1.741178,1.732678
2020-11-15 21:42:23.571,1.695677,1.730428,1.739303,1.733553
2020-11-15 21:42:23.588,1.696052,1.725803,1.739053,1.733303
2020-11-15 21:42:23.605,1.696302,1.727928,1.732428,1.732928
2020-11-15 21:42:23.622,1.696552,1.729678,1.734553,1.733303
2020-11-15 21:42:23.639,1.696677,1.734178,1.734053,1.733553
2020-11-15 21:42:23.656,1.696052,1.731178,1.738678,1.733428
2020-11-15 21:42:23.673,1.694802,1.731428,1.739678,1.734053
2020-11-15 21:42:23.690,1.694927,1.726803,1.739803,1.734053
2020-11-15 21:42:23.707,1.696177,1.727678,1.736178,1.733178
2020-11-15 21:42:23.724,1.697552,1.728303,1.734303,1.734303
2020-11-15 21:42:23.741,1.696552,1.730428,1.734928,1.733178
2020-11-15 21:42:23.758,1.696927,1.733178,1.735678,1.732803
2020-11-15 21:42:23.775,1.695552,1.730678,1.742303,1.733553
2020-11-15 21:42:23.792,1.695427,1.729553,1.739178,1.734053
2020-11-15 21:42:23.809,1.695802,1.726803,1.739803,1.733803
2020-11-15 21:42:23.826,1.695552,1.728553,1.734553,1.733678
2020-11-15 21:42:23.843,1.697177,1.729178,1.734928,1.733928
2020-11-15 21:42:23.860,1.696677,1.733678,1.734303,1.733053
2020-11-15 21:42:23.877,1.696177,1.731678,1.740053,1.733553
2020-11-15 21:42:23.894,1.694802,1.731928,1.739678,1.733553
2020-11-15 21:42:23.911,1.695802,1.728928,1.739928,1.733928
2020-11-15 21:42:23.928,1.696177,1.725803,1.739428,1.733928
2020-11-15 21:42:23.947,1.696177,1.728178,1.734803,1.733178
2020-11-15 21:42:23.964,1.697677,1.728053,1.734553,1.733428
2020-11-15 21:42:23.980,1.696052,1.733428,1.735178,1.733178
2020-11-15 21:42:23.998,1.696677,1.732178,1.736803,1.733678
2020-11-15 21:42:24.015,1.694177,1.731678,1.742053,1.734053
2020-11-15 21:42:24.032,1.695177,1.728928,1.739303,1.734178
2020-11-15 21:42:24.049,1.695177,1.727553,1.738178,1.734178
2020-11-15 21:42:24.066,1.695802,1.728178,1.733053,1.733428
2020-11-15 21:42:24.083,1.696927,1.728928,1.734928,1.733303
2020-11-15 21:42:24.100,1.696302,1.734178,1.734803,1.733178
2020-11-15 21:42:24.117,1.696802,1.731803,1.741053,1.732928
2020-11-15 21:42:24.134,1.694802,1.731053,1.739428,1.732928
2020-11-15 21:42:24.151,1.695177,1.727303,1.740053,1.734053
2020-11-15 21:42:24.168,1.695552,1.727303,1.736803,1.734178
2020-11-15 21:42:24.185,1.697427,1.728303,1.732553,1.733928
2020-11-15 21:42:24.202,1.696677,1.732178,1.735928,1.733428
2020-11-15 21:42:24.219,1.696052,1.731928,1.735178,1.733303
2020-11-15 21:42:24.236,1.695802,1.731053,1.741053,1.733928
2020-11-15 21:42:24.253,1.695302,1.730803,1.739553,1.733553
2020-11-15 21:42:24.270,1.694927,1.726178,1.738928,1.733678
2020-11-15 21:42:24.287,1.696052,1.728053,1.732553,1.733803
2020-11-15 21:42:24.304,1.698052,1.728678,1.734803,1.733803
2020-11-15 21:42:24.321,1.696052,1.732803,1.734803,1.732928
2020-11-15 21:42:24.338,1.696677,1.731803,1.739053,1.733303
2020-11-15 21:42:24.355,1.695177,1.731803,1.740303,1.733053
2020-11-15 21:42:24.372,1.696052,1.730303,1.739928,1.733803
2020-11-15 21:42:24.389,1.695552,1.726303,1.738303,1.733178
2020-11-15 21:42:24.406,1.696927,1.728053,1.732428,1.733428
2020-11-15 21:42:24.423,1.697052,1.728553,1.734928,1.733428
2020-11-15 21:42:24.440,1.697302,1.734303,1.734553,1.732803
2020-11-15 21:42:24.457,1.696177,1.732428,1.739428,1.733428
2020-11-15 21:42:24.474,1.694677,1.731053,1.739678,1.733928
2020-11-15 21:42:24.491,1.695552,1.727678,1.739428,1.734678
2020-11-15 21:42:24.509,1.695927,1.728303,1.738178,1.734303
2020-11-15 21:42:24.526,1.696677,1.728553,1.734803,1.733803
2020-11-15 21:42:24.543,1.696927,1.729928,1.735178,1.732928
2020-11-15 21:42:24.560,1.696802,1.732803,1.736428,1.733178
2020-11-15 21:42:24.577,1.695802,1.731428,1.743053,1.733178
2020-11-15 21:42:24.594,1.695552,1.730303,1.740428,1.733553
2020-11-15 21:42:24.611,1.696302,1.726803,1.740178,1.733928
2020-11-15 21:42:24.628,1.695802,1.728428,1.734928,1.734553
2020-11-15 21:42:24.645,1.698052,1.729553,1.735178,1.733928
2020-11-15 21:42:24.662,1.696552,1.733803,1.734678,1.733428
2020-11-15 21:42:24.679,1.697177,1.731928,1.736553,1.733678
2020-11-15 21:42:24.696,1.695302,1.732303,1.743053,1.734178
2020-11-15 21:42:24.713,1.695302,1.729303,1.739678,1.734678
2020-11-15 21:42:24.730,1.695177,1.727178,1.738553,1.734428
2020-11-15 21:42:24.747,1.697552,1.728303,1.731803,1.733178
2020-11-15 21:42:24.765,1.697552,1.728178,1.734678,1.733428
2020-11-15 21:42:24.782,1.697552,1.732053,1.735428,1.733303
2020-11-15 21:42:24.799,1.697177,1.731553,1.737928,1.732553
2020-11-15 21:42:24.816,1.695427,1.730678,1.742678,1.733178
2020-11-15 21:42:24.833,1.695677,1.729178,1.740428,1.734803
2020-11-15 21:42:24.850,1.695552,1.728428,1.738928,1.734053
2020-11-15 21:42:24.867,1.696302,1.728178,1.732553,1.734303
2020-11-15 21:42:24.884,1.697927,1.729928,1.734803,1.733553
2020-11-15 21:42:24.901,1.695927,1.734678,1.734303,1.733678
2020-11-15 21:42:24.918,1.696552,1.732053,1.742553,1.733428
2020-11-15 21:42:24.935,1.694927,1.731803,1.739928,1.733928
2020-11-15 21:42:24.952,1.695552,1.727428,1.740053,1.734678
2020-11-15 21:42:24.969,1.696052,1.728178,1.736678,1.733803
2020-11-15 21:42:24.986,1.697052,1.728178,1.733178,1.733678
2020-11-15 21:42:25.003,1.696927,1.729428,1.735803,1.732553
2020-11-15 21:42:25.020,1.697302,1.733553,1.736678,1.733553
2020-11-15 21:42:25.037,1.696052,1.732178,1.742553,1.733928
2020-11-15 21:42:25.054,1.695927,1.731053,1.739803,1.734553
2020-11-15 21:42:25.071,1.695177,1.726803,1.739303,1.734428
2020-11-15 21:42:25.088,1.695802,1.728178,1.735928,1.734428
2020-11-15 21:42:25.105,1.697052,1.729053,1.734178,1.732928
2020-11-15 21:42:25.122,1.697052,1.733803,1.734553,1.733553
2020-11-15 21:42:25.139,1.696677,1.731928,1.739178,1.733178
2020-11-15 21:42:25.156,1.695052,1.731803,1.741053,1.733178
2020-11-15 21:42:25.173,1.695802,1.729928,1.739178,1.733678
2020-11-15 21:42:25.190,1.695802,1.726178,1.738428,1.733928
2020-11-15 21:42:25.208,1.696677,1.729053,1.732178,1.733928
2020-11-15 21:42:25.225,1.696427,1.728553,1.735428,1.733803
2020-11-15 21:42:25.242,1.697427,1.734178,1.734428,1.733428
2020-11-15 21:42:25.259,1.696802,1.731928,1.738678,1.732803
2020-11-15 21:42:25.276,1.694802,1.732178,1.740303,1.734178
2020-11-15 21:42:25.293,1.695552,1.727553,1.739803,1.734053
2020-11-15 21:42:25.310,1.695427,1.728178,1.737928,1.734053
2020-11-15 21:42:25.327,1.697177,1.728928,1.731803,1.734303
2020-11-15 21:42:25.344,1.696302,1.730803,1.735178,1.733053
2020-11-15 21:42:25.361,1.697052,1.733303,1.736803,1.733803
2020-11-15 21:42:25.378,1.696427,1.731678,1.743428,1.733303
2020-11-15 21:42:25.395,1.696177,1.730678,1.740053,1.733928
2020-11-15 21:42:25.412,1.696302,1.726678,1.740178,1.733678
2020-11-15 21:42:25.429,1.695927,1.728178,1.734053,1.734303
2020-11-15 21:42:25.446,1.697677,1.729303,1.735553,1.733428
2020-11-15 21:42:25.463,1.696552,1.733803,1.735303,1.733553
2020-11-15 21:42:25.480,1.696552,1.732553,1.737053,1.733678
2020-11-15 21:42:25.497,1.695677,1.732053,1.742928,1.734178
2020-11-15 21:42:25.514,1.695052,1.728678,1.739428,1.734803
2020-11-15 21:42:25.531,1.695802,1.728303,1.738428,1.733928
2020-11-15 21:42:25.548,1.697052,1.728553,1.731553,1.733428
2020-11-15 21:42:25.565,1.697427,1.729678,1.735303,1.733553
2020-11-15 21:42:25.582,1.696927,1.731428,1.735428,1.733303
2020-11-15 21:42:25.600,1.697177,1.731803,1.738303,1.732678
2020-11-15 21:42:25.617,1.696177,1.731178,1.742553,1.732803
2020-11-15 21:42:25.634,1.695677,1.730553,1.740303,1.733803
2020-11-15 21:42:25.651,1.695177,1.727928,1.739053,1.734178
2020-11-15 21:42:25.668,1.696427,1.728553,1.733178,1.735053
2020-11-15 21:42:25.685,1.697677,1.729553,1.734053,1.733428
2020-11-15 21:42:25.702,1.696427,1.735053,1.734678,1.733553
2020-11-15 21:42:25.719,1.696177,1.731803,1.738553,1.733803
2020-11-15 21:42:25.736,1.695052,1.731553,1.740803,1.734553
2020-11-15 21:42:25.753,1.695677,1.727178,1.739803,1.734428
2020-11-15 21:42:25.770,1.696302,1.728428,1.736053,1.733678
2020-11-15 21:42:25.787,1.697302,1.728053,1.733803,1.734178
2020-11-15 21:42:25.804,1.697427,1.730178,1.734928,1.733053
2020-11-15 21:42:25.821,1.696802,1.733678,1.735803,1.733678
2020-11-15 21:42:25.838,1.696302,1.732178,1.742553,1.733678
2020-11-15 21:42:25.855,1.695802,1.730553,1.740053,1.734553
2020-11-15 21:42:25.872,1.695677,1.726178,1.740053,1.733803
2020-11-15 21:42:25.889,1.696302,1.729178,1.735178,1.733678
2020-11-15 21:42:25.906,1.697552,1.729178,1.734303,1.733928
2020-11-15 21:42:25.923,1.696552,1.733053,1.735303,1.732553
2020-11-15 21:42:25.940,1.696177,1.732428,1.736053,1.733803
2020-11-15 21:42:25.958,1.694927,1.731928,1.740553,1.734053
2020-11-15 21:42:25.975,1.695552,1.729928,1.739803,1.734303
2020-11-15 21:42:25.992,1.696052,1.726428,1.739053,1.733803
2020-11-15 21:42:26.009,1.696427,1.727928,1.731928,1.734053
2020-11-15 21:42:26.026,1.697302,1.728803,1.735053,1.733803
2020-11-15 21:42:26.043,1.697052,1.734178,1.735428,1.733678
2020-11-15 21:42:26.060,1.696052,1.732678,1.740928,1.733303
2020-11-15 21:42:26.077,1.694802,1.731178,1.740178,1.733928
2020-11-15 21:42:26.094,1.694802,1.726803,1.739553,1.734428
2020-11-15 21:42:26.111,1.695677,1.728553,1.737553,1.734553
2020-11-15 21:42:26.128,1.697052,1.728428,1.735303,1.734428
2020-11-15 21:42:26.145,1.696177,1.731178,1.734928,1.733303
2020-11-15 21:42:26.162,1.696802,1.733053,1.737053,1.733803
2020-11-15 21:42:26.179,1.695052,1.732053,1.743803,1.733553
2020-11-15 21:42:26.196,1.695927,1.731428,1.740303,1.734053
2020-11-15 21:42:26.213,1.696052,1.726053,1.739428,1.734303
2020-11-15 21:42:26.230,1.696177,1.728803,1.733678,1.733928
2020-11-15 21:42:26.247,1.697552,1.727803,1.734678,1.733303
2020-11-15 21:42:26.264,1.696802,1.733928,1.735803,1.733553
2020-11-15 21:42:26.281,1.697177,1.732428,1.736803,1.732803
2020-11-15 21:42:26.298,1.694677,1.732803,1.743428,1.734303
2020-11-15 21:42:26.315,1.695302,1.729553,1.740178,1.734928
2020-11-15 21:42:26.332,1.695677,1.728303,1.738178,1.734303
2020-11-15 21:42:26.349,1.695927,1.728428,1.732803,1.733803
2020-11-15 21:42:26.366,1.696802,1.729303,1.735178,1.733803
2020-11-15 21:42:26.383,1.697302,1.734303,1.736678,1.732803
2020-11-15 21:42:26.400,1.696552,1.732553,1.741928,1.732678
2020-11-15 21:42:26.418,1.695552,1.732178,1.741678,1.732928
2020-11-15 21:42:26.435,1.695677,1.730178,1.740178,1.733428
2020-11-15 21:42:26.452,1.695927,1.725303,1.739303,1.733678
2020-11-15 21:42:26.469,1.696552,1.728428,1.732303,1.734303
2020-11-15 21:42:26.486,1.697302,1.729553,1.735178,1.733428
2020-11-15 21:42:26.503,1.696927,1.734803,1.734803,1.733428
2020-11-15 21:42:26.520,1.696052,1.732178,1.738928,1.733553
2020-11-15 21:42:26.537,1.694552,1.732178,1.740178,1.733553
2020-11-15 21:42:26.554,1.695177,1.727803,1.739053,1.734428
2020-11-15 21:42:26.571,1.694802,1.728053,1.735928,1.733928
2020-11-15 21:42:26.588,1.697677,1.728303,1.734303,1.734178
2020-11-15 21:42:26.605,1.697177,1.729803,1.735053,1.733428
2020-11-15 21:42:26.623,1.696677,1.733803,1.734178,1.733428
2020-11-15 21:42:26.640,1.695677,1.731928,1.742553,1.733678
2020-11-15 21:42:26.657,1.695052,1.731303,1.739678,1.733428
2020-11-15 21:42:26.674,1.695802,1.727428,1.740053,1.733928
2020-11-15 21:42:26.691,1.695677,1.727678,1.735428,1.734053
2020-11-15 21:42:26.708,1.698052,1.727803,1.734553,1.733428
2020-11-15 21:42:26.725,1.697177,1.730803,1.735428,1.733428
2020-11-15 21:42:26.742,1.696927,1.732553,1.736553,1.733428
2020-11-15 21:42:26.759,1.695552,1.732178,1.743553,1.734178
2020-11-15 21:42:26.776,1.695802,1.730303,1.739803,1.734178
2020-11-15 21:42:26.793,1.694802,1.727678,1.739928,1.734553
2020-11-15 21:42:26.810,1.695927,1.728178,1.733803,1.733553
2020-11-15 21:42:26.827,1.697302,1.729928,1.734303,1.733928
2020-11-15 21:42:26.844,1.696302,1.733178,1.735553,1.732928
2020-11-15 21:42:26.861,1.696427,1.732678,1.741678,1.733553
2020-11-15 21:42:26.878,1.694927,1.732178,1.739928,1.733303
2020-11-15 21:42:26.895,1.695802,1.728553,1.740053,1.734303
2020-11-15 21:42:26.912,1.696177,1.727553,1.738178,1.734178
2020-11-15 21:42:26.929,1.697677,1.727678,1.731928,1.733428
2020-11-15 21:42:26.946,1.697427,1.731803,1.734928,1.733428
2020-11-15 21:42:26.963,1.696802,1.733178,1.736303,1.733303
2020-11-15 21:42:26.980,1.696177,1.732428,1.741678,1.733428
2020-11-15 21:42:26.997,1.694802,1.731053,1.740428,1.733928
2020-11-15 21:42:27.014,1.695427,1.727053,1.739803,1.734178
2020-11-15 21:42:27.031,1.695552,1.728803,1.736678,1.734178
2020-11-15 21:42:27.048,1.696927,1.728553,1.732178,1.734053
2020-11-15 21:42:27.065,1.696552,1.731928,1.735678,1.733303
2020-11-15 21:42:27.082,1.697677,1.732428,1.737928,1.733178
2020-11-15 21:42:27.099,1.695302,1.731928,1.742928,1.733303
2020-11-15 21:42:27.116,1.695427,1.730928,1.739553,1.733678
2020-11-15 21:42:27.133,1.696177,1.726928,1.739678,1.734178
2020-11-15 21:42:27.150,1.696677,1.728428,1.733803,1.734303
2020-11-15 21:42:27.167,1.697052,1.729803,1.734553,1.733928
2020-11-15 21:42:27.184,1.697052,1.734678,1.735053,1.733553
2020-11-15 21:42:27.201,1.696677,1.732053,1.738553,1.733553
2020-11-15 21:42:27.218,1.695552,1.732178,1.741428,1.734053
2020-11-15 21:42:27.235,1.695052,1.730053,1.740303,1.734553
2020-11-15 21:42:27.254,1.696177,1.726178,1.739428,1.734303
2020-11-15 21:42:27.271,1.697052,1.729428,1.732803,1.734303
2020-11-15 21:42:27.288,1.697302,1.729428,1.735428,1.733053
2020-11-15 21:42:27.305,1.696802,1.732553,1.735053,1.731803
2020-11-15 21:42:27.322,1.696552,1.732803,1.740428,1.734178
2020-11-15 21:42:27.339,1.695677,1.731803,1.740053,1.733178
2020-11-15 21:42:27.356,1.695677,1.727428,1.739928,1.734928
2020-11-15 21:42:27.373,1.695802,1.728303,1.738428,1.734053
2020-11-15 21:42:27.390,1.697052,1.728428,1.732303,1.734303
2020-11-15 21:42:27.407,1.696302,1.731053,1.734928,1.733178
2020-11-15 21:42:27.424,1.696552,1.734053,1.736678,1.733303
2020-11-15 21:42:27.441,1.696302,1.731303,1.743803,1.733678
2020-11-15 21:42:27.458,1.696177,1.731053,1.739428,1.733553
2020-11-15 21:42:27.475,1.696177,1.727678,1.740178,1.734428
2020-11-15 21:42:27.492,1.696427,1.728303,1.734178,1.733803
2020-11-15 21:42:27.509,1.697927,1.728303,1.735303,1.734053
2020-11-15 21:42:27.526,1.697052,1.733678,1.735053,1.733428
2020-11-15 21:42:27.543,1.696802,1.732178,1.736928,1.733803
2020-11-15 21:42:27.560,1.695677,1.731928,1.743928,1.733553
2020-11-15 21:42:27.577,1.695177,1.729178,1.739428,1.734803
2020-11-15 21:42:27.594,1.695302,1.727428,1.738678,1.733678
2020-11-15 21:42:27.611,1.696052,1.728428,1.732053,1.734928
2020-11-15 21:42:27.628,1.697427,1.729678,1.735678,1.733303
2020-11-15 21:42:27.645,1.696927,1.733803,1.736178,1.733178
2020-11-15 21:42:27.662,1.696552,1.731678,1.741053,1.733178
2020-11-15 21:42:27.679,1.695052,1.732303,1.740303,1.733553
2020-11-15 21:42:27.696,1.695427,1.728178,1.739928,1.733928
2020-11-15 21:42:27.713,1.695677,1.727928,1.738303,1.734178
2020-11-15 21:42:27.730,1.698177,1.728678,1.732678,1.734178
2020-11-15 21:42:27.747,1.697177,1.731678,1.735178,1.732803
2020-11-15 21:42:27.764,1.697052,1.732303,1.735928,1.733928
2020-11-15 21:42:27.781,1.696052,1.732303,1.741553,1.733053
2020-11-15 21:42:27.798,1.694927,1.731303,1.739803,1.734553
2020-11-15 21:42:27.815,1.696177,1.726428,1.739553,1.734053
2020-11-15 21:42:27.832,1.696052,1.727928,1.733428,1.733803
2020-11-15 21:42:27.849,1.696802,1.729178,1.735178,1.733678
2020-11-15 21:42:27.866,1.697177,1.732928,1.734928,1.732678
2020-11-15 21:42:27.883,1.696927,1.731678,1.738178,1.733553
2020-11-15 21:42:27.900,1.695677,1.731803,1.741928,1.734178
2020-11-15 21:42:27.917,1.695427,1.728053,1.739428,1.734303
2020-11-15 21:42:27.934,1.695677,1.728303,1.738803,1.733928
2020-11-15 21:42:27.951,1.696302,1.728803,1.732678,1.734303
2020-11-15 21:42:27.968,1.696677,1.730053,1.734928,1.733803
2020-11-15 21:42:27.985,1.696927,1.734303,1.734803,1.733053
2020-11-15 21:42:28.002,1.696177,1.731928,1.741803,1.733428
2020-11-15 21:42:28.019,1.695177,1.732178,1.740678,1.734053
2020-11-15 21:42:28.036,1.695302,1.727178,1.739928,1.734678
2020-11-15 21:42:28.053,1.696677,1.728303,1.735678,1.733928
2020-11-15 21:42:28.071,1.697677,1.728428,1.732053,1.734053
2020-11-15 21:42:28.088,1.697552,1.730553,1.735553,1.733428
2020-11-15 21:42:28.105,1.697302,1.733803,1.735428,1.733678
2020-11-15 21:42:28.122,1.696552,1.731928,1.740678,1.733928
2020-11-15 21:42:28.139,1.694927,1.732428,1.740053,1.734053
2020-11-15 21:42:28.156,1.695177,1.727303,1.740678,1.734428
2020-11-15 21:42:28.173,1.695802,1.728303,1.734928,1.733803
2020-11-15 21:42:28.190,1.697802,1.728303,1.735303,1.733553
2020-11-15 21:42:28.207,1.697177,1.731178,1.734553,1.732803
2020-11-15 21:42:28.224,1.697302,1.733178,1.736803,1.733678
2020-11-15 21:42:28.241,1.695177,1.731928,1.743553,1.733553
2020-11-15 21:42:28.258,1.695302,1.730053,1.740303,1.734428
2020-11-15 21:42:28.275,1.695427,1.726928,1.739553,1.734178
2020-11-15 21:42:28.292,1.695552,1.728678,1.734553,1.734178
2020-11-15 21:42:28.309,1.697927,1.729303,1.734428,1.733303
2020-11-15 21:42:28.326,1.696677,1.734428,1.736053,1.733428
2020-11-15 21:42:28.343,1.696552,1.731553,1.740928,1.733928
2020-11-15 21:42:28.360,1.695552,1.732053,1.739928,1.733428
2020-11-15 21:42:28.377,1.695677,1.729303,1.740303,1.734428
2020-11-15 21:42:28.394,1.695552,1.727928,1.738178,1.734053
2020-11-15 21:42:28.411,1.697302,1.728428,1.732178,1.734178
2020-11-15 21:42:28.428,1.696927,1.728678,1.734428,1.733053
2020-11-15 21:42:28.445,1.696802,1.732428,1.735303,1.733678
2020-11-15 21:42:28.462,1.696677,1.732053,1.740928,1.733678
2020-11-15 21:42:28.479,1.695052,1.730678,1.740428,1.734303
2020-11-15 21:42:28.496,1.695802,1.725928,1.739928,1.734178
2020-11-15 21:42:28.513,1.695302,1.728803,1.733303,1.734303
2020-11-15 21:42:28.530,1.697802,1.728803,1.735428,1.733428
2020-11-15 21:42:28.547,1.697052,1.731928,1.735803,1.732803
2020-11-15 21:42:28.564,1.696927,1.731428,1.738053,1.733303
2020-11-15 21:42:28.581,1.695802,1.732053,1.742678,1.732803
2020-11-15 21:42:28.598,1.695802,1.728303,1.740053,1.735053
2020-11-15 21:42:28.615,1.696052,1.728178,1.739303,1.734178
2020-11-15 21:42:28.632,1.696677,1.728928,1.732928,1.733678
2020-11-15 21:42:28.649,1.697677,1.729803,1.734553,1.733553
2020-11-15 21:42:28.666,1.696552,1.734428,1.734928,1.733553
2020-11-15 21:42:28.683,1.696802,1.732553,1.741803,1.734053
2020-11-15 21:42:28.700,1.695427,1.731928,1.740303,1.734053
2020-11-15 21:42:28.717,1.695927,1.728178,1.740553,1.734803
2020-11-15 21:42:28.734,1.696177,1.728053,1.736303,1.733678
2020-11-15 21:42:28.751,1.697927,1.728553,1.733928,1.734053
2020-11-15 21:42:28.768,1.696677,1.732303,1.735428,1.733428
2020-11-15 21:42:28.785,1.697177,1.731678,1.737053,1.734303
2020-11-15 21:42:28.802,1.696052,1.732178,1.742928,1.733428
2020-11-15 21:42:28.819,1.695677,1.730428,1.739928,1.735053
2020-11-15 21:42:28.836,1.695177,1.726928,1.740678,1.734678
2020-11-15 21:42:28.853,1.695802,1.728928,1.735178,1.733803
2020-11-15 21:42:28.870,1.696677,1.729678,1.735428,1.733428
2020-11-15 21:42:28.887,1.696302,1.729428,1.735928,1.732803
2020-11-15 21:42:28.905,1.697177,1.733928,1.736553,1.732928
2020-11-15 21:42:28.922,1.695802,1.732303,1.743178,1.733428
2020-11-15 21:42:28.939,1.696052,1.731428,1.740303,1.734053
2020-11-15 21:42:28.956,1.695302,1.726928,1.740053,1.735178
2020-11-15 21:42:28.973,1.695802,1.727928,1.734178,1.733678
2020-11-15 21:42:28.990,1.698552,1.728553,1.735053,1.733553
2020-11-15 21:42:29.007,1.697177,1.730553,1.735303,1.732803
2020-11-15 21:42:29.024,1.696802,1.732303,1.736803,1.733928
2020-11-15 21:42:29.041,1.695552,1.732553,1.744178,1.734303
2020-11-15 21:42:29.058,1.695927,1.728803,1.739928,1.734553
2020-11-15 21:42:29.075,1.695552,1.727803,1.738428,1.733678
2020-11-15 21:42:29.092,1.695927,1.728803,1.733428,1.734553
2020-11-15 21:42:29.109,1.697302,1.729678,1.734553,1.734428
2020-11-15 21:42:29.126,1.696802,1.733678,1.735553,1.733428
2020-11-15 21:42:29.143,1.696177,1.732428,1.741178,1.734553
2020-11-15 21:42:29.160,1.694552,1.731928,1.740803,1.733678
2020-11-15 21:42:29.177,1.695677,1.728678,1.740428,1.734803
2020-11-15 21:42:29.194,1.696177,1.728428,1.737178,1.733803
2020-11-15 21:42:29.211,1.697427,1.728428,1.732678,1.734178
2020-11-15 21:42:29.228,1.698177,1.732303,1.735428,1.733428
2020-11-15 21:42:29.245,1.697177,1.732678,1.736053,1.733428
2020-11-15 21:42:29.262,1.696427,1.732303,1.741803,1.734303
2020-11-15 21:42:29.279,1.695677,1.730678,1.740303,1.733678
2020-11-15 21:42:29.296,1.695302,1.726803,1.739553,1.734178
2020-11-15 21:42:29.313,1.695552,1.728928,1.735553,1.734303
2020-11-15 21:42:29.330,1.696802,1.728303,1.734803,1.733803
2020-11-15 21:42:29.348,1.697052,1.731928,1.735178,1.732803
2020-11-15 21:42:29.365,1.696552,1.731303,1.738303,1.732553
2020-11-15 21:42:29.382,1.695802,1.732178,1.741553,1.733803
2020-11-15 21:42:29.399,1.696052,1.731428,1.740428,1.734428
2020-11-15 21:42:29.416,1.696302,1.726303,1.739303,1.734428
2020-11-15 21:42:29.433,1.697052,1.728303,1.732678,1.733678
2020-11-15 21:42:29.450,1.696802,1.728553,1.735178,1.733178
2020-11-15 21:42:29.467,1.697177,1.732428,1.734678,1.733553
2020-11-15 21:42:29.484,1.696927,1.731678,1.739053,1.733678
2020-11-15 21:42:29.501,1.695177,1.731803,1.739678,1.733553
2020-11-15 21:42:29.518,1.695677,1.727678,1.739928,1.734428
2020-11-15 21:42:29.535,1.695552,1.728303,1.738428,1.734178
2020-11-15 21:42:29.552,1.696927,1.729303,1.731553,1.734678
2020-11-15 21:42:29.569,1.696802,1.730303,1.735553,1.733803
2020-11-15 21:42:29.586,1.696927,1.733678,1.736678,1.733178
2020-11-15 21:42:29.603,1.695677,1.732428,1.742928,1.732928
2020-11-15 21:42:29.620,1.695677,1.731053,1.740428,1.734053
2020-11-15 21:42:29.637,1.696177,1.726928,1.740428,1.734178
2020-11-15 21:42:29.654,1.695927,1.727678,1.735178,1.734553
2020-11-15 21:42:29.671,1.698052,1.729428,1.735678,1.734303
2020-11-15 21:42:29.688,1.696927,1.733678,1.735303,1.733678
2020-11-15 21:42:29.705,1.696927,1.732053,1.736928,1.733053
2020-11-15 21:42:29.723,1.696927,1.732053,1.741553,1.733428
2020-11-15 21:42:29.740,1.695302,1.731053,1.739678,1.733928
2020-11-15 21:42:29.757,1.695302,1.727178,1.739678,1.734553
2020-11-15 21:42:29.774,1.695927,1.728928,1.734678,1.734553
2020-11-15 21:42:29.791,1.697677,1.728553,1.734678,1.733803
2020-11-15 21:42:29.808,1.697302,1.731928,1.735803,1.733428
2020-11-15 21:42:29.825,1.697552,1.731803,1.737803,1.733553
2020-11-15 21:42:29.842,1.695552,1.731678,1.743053,1.732803
2020-11-15 21:42:29.859,1.695677,1.729178,1.740178,1.735178
2020-11-15 21:42:29.876,1.695427,1.727928,1.739053,1.734303
2020-11-15 21:42:29.893,1.696177,1.728803,1.733053,1.734178
2020-11-15 21:42:29.910,1.697427,1.729803,1.735178,1.734053
2020-11-15 21:42:29.927,1.697052,1.734928,1.735053,1.734178
2020-11-15 21:42:29.944,1.696427,1.732053,1.737803,1.733928
2020-11-15 21:42:29.961,1.694802,1.732178,1.740928,1.733678
2020-11-15 21:42:29.978,1.695802,1.728178,1.740553,1.734553
2020-11-15 21:42:29.995,1.695802,1.728928,1.737303,1.734178
2020-11-15 21:42:30.012,1.698052,1.728803,1.733053,1.734178
2020-11-15 21:42:30.029,1.697177,1.729428,1.735428,1.733053
2020-11-15 21:42:30.046,1.697427,1.734303,1.736803,1.733428
2020-11-15 21:42:30.063,1.696677,1.731678,1.742553,1.733053
2020-11-15 21:42:30.080,1.695927,1.731553,1.740178,1.733678
2020-11-15 21:42:30.097,1.695427,1.727553,1.740553,1.734678
2020-11-15 21:42:30.114,1.696302,1.729428,1.735928,1.734178
2020-11-15 21:42:30.131,1.697302,1.729553,1.734928,1.734303
2020-11-15 21:42:30.149,1.697302,1.733303,1.735428,1.733428
2020-11-15 21:42:30.166,1.696677,1.732303,1.735803,1.733678
2020-11-15 21:42:30.183,1.695552,1.731803,1.741928,1.733928
2020-11-15 21:42:30.200,1.695302,1.731178,1.740553,1.734928
2020-11-15 21:42:30.217,1.695927,1.727178,1.739553,1.734678
2020-11-15 21:42:30.234,1.697177,1.729303,1.732678,1.733678
2020-11-15 21:42:30.251,1.697427,1.729303,1.735178,1.734053
2020-11-15 21:42:30.268,1.697927,1.733053,1.734928,1.733428
2020-11-15 21:42:30.285,1.697552,1.731553,1.740303,1.734053
2020-11-15 21:42:30.302,1.694552,1.731428,1.740303,1.734178
2020-11-15 21:42:30.319,1.695802,1.727553,1.739803,1.734928
2020-11-15 21:42:30.336,1.696427,1.728678,1.738678,1.734053
2020-11-15 21:42:30.353,1.697177,1.728678,1.732053,1.734803
2020-11-15 21:42:30.370,1.696677,1.730928,1.734678,1.733553
2020-11-15 21:42:30.386,1.696427,1.733803,1.736303,1.733553
2020-11-15 21:42:30.403,1.695927,1.732053,1.743553,1.733678
2020-11-15 21:42:30.420,1.696052,1.731053,1.739678,1.734178
2020-11-15 21:42:30.437,1.696802,1.727053,1.739803,1.734678
2020-11-15 21:42:30.454,1.697052,1.728053,1.734803,1.733553
2020-11-15 21:42:30.471,1.698052,1.728178,1.734803,1.734178
2020-11-15 21:42:30.488,1.697052,1.733678,1.735678,1.733428
2020-11-15 21:42:30.505,1.697177,1.732678,1.736928,1.733428
2020-11-15 21:42:30.522,1.695427,1.732303,1.743678,1.734178
2020-11-15 21:42:30.539,1.696052,1.730053,1.740053,1.734303
2020-11-15 21:42:30.558,1.695802,1.726803,1.739428,1.734803
2020-11-15 21:42:30.575,1.696177,1.728303,1.733928,1.734678
2020-11-15 21:42:30.592,1.698052,1.729678,1.735678,1.733678
2020-11-15 21:42:30.609,1.697427,1.731928,1.735553,1.733553
2020-11-15 21:42:30.626,1.697552,1.732553,1.737803,1.733428
2020-11-15 21:42:30.643,1.695677,1.732053,1.743303,1.733803
2020-11-15 21:42:30.660,1.696927,1.730553,1.739928,1.734803
2020-11-15 21:42:30.677,1.696427,1.728428,1.739803,1.734428
2020-11-15 21:42:30.694,1.696552,1.728928,1.733053,1.734678
2020-11-15 21:42:30.711,1.697552,1.730303,1.734678,1.733928
2020-11-15 21:42:30.728,1.696677,1.734803,1.734428,1.733178
2020-11-15 21:42:30.745,1.695552,1.731803,1.738178,1.733678
2020-11-15 21:42:30.762,1.695552,1.731928,1.740428,1.733678
2020-11-15 21:42:30.779,1.696052,1.728178,1.740553,1.734803
2020-11-15 21:42:30.796,1.696552,1.728553,1.736678,1.734178
2020-11-15 21:42:30.813,1.698052,1.727928,1.733678,1.734178
2020-11-15 21:42:30.830,1.697177,1.729303,1.735553,1.733428
2020-11-15 21:42:30.847,1.697052,1.733553,1.736178,1.734178
2020-11-15 21:42:30.864,1.696052,1.732553,1.742928,1.733928
2020-11-15 21:42:30.881,1.695427,1.730678,1.740053,1.734553
2020-11-15 21:42:30.898,1.695677,1.725928,1.740303,1.733928
2020-11-15 21:42:30.915,1.695677,1.728678,1.734803,1.733928
2020-11-15 21:42:30.932,1.697677,1.728678,1.735053,1.733803
2020-11-15 21:42:30.949,1.697052,1.732928,1.735053,1.733803
2020-11-15 21:42:30.966,1.697052,1.731928,1.739553,1.733803
2020-11-15 21:42:30.983,1.695427,1.732053,1.740553,1.733303
2020-11-15 21:42:31.000,1.695802,1.729928,1.740178,1.733928
2020-11-15 21:42:31.017,1.696052,1.726178,1.738928,1.734553
2020-11-15 21:42:31.034,1.696802,1.728928,1.732303,1.734178
2020-11-15 21:42:31.051,1.697302,1.730678,1.735428,1.733303
2020-11-15 21:42:31.068,1.697052,1.733928,1.735428,1.733928
2020-11-15 21:42:31.085,1.696677,1.732053,1.739928,1.734053
2020-11-15 21:42:31.102,1.695177,1.731678,1.739678,1.734053
2020-11-15 21:42:31.119,1.695427,1.727428,1.739803,1.734428
2020-11-15 21:42:31.136,1.696927,1.728678,1.735678,1.734428
2020-11-15 21:42:31.153,1.697552,1.729178,1.735553,1.734053
2020-11-15 21:42:31.170,1.697302,1.731303,1.735803,1.733053
2020-11-15 21:42:31.187,1.697302,1.732928,1.736678,1.732928
2020-11-15 21:42:31.203,1.696177,1.731678,1.744178,1.734053
2020-11-15 21:42:31.221,1.695927,1.731053,1.740178,1.733803
2020-11-15 21:42:31.238,1.695802,1.727053,1.739553,1.734428
2020-11-15 21:42:31.255,1.696427,1.728553,1.735053,1.733928
2020-11-15 21:42:31.272,1.698052,1.728178,1.735428,1.733303
2020-11-15 21:42:31.289,1.697302,1.731428,1.735428,1.733053
2020-11-15 21:42:31.306,1.697302,1.732428,1.737678,1.734428
2020-11-15 21:42:31.323,1.696177,1.732803,1.742803,1.734178
2020-11-15 21:42:31.340,1.695052,1.729053,1.739678,1.734678
2020-11-15 21:42:31.357,1.695302,1.727553,1.739303,1.733678
2020-11-15 21:42:31.375,1.695927,1.728678,1.736803,1.734303
2020-11-15 21:42:31.392,1.697677,1.728428,1.733178,1.734178
2020-11-15 21:42:31.409,1.696427,1.732178,1.736053,1.733053
2020-11-15 21:42:31.426,1.696552,1.732803,1.738928,1.733928
2020-11-15 21:42:31.443,1.695302,1.731803,1.742803,1.733678
2020-11-15 21:42:31.460,1.695802,1.730428,1.741053,1.734053
2020-11-15 21:42:31.477,1.696552,1.726303,1.739428,1.733928
2020-11-15 21:42:31.494,1.696427,1.728553,1.733178,1.733928
2020-11-15 21:42:31.511,1.697677,1.728928,1.735678,1.734428
2020-11-15 21:42:31.528,1.697177,1.734803,1.735553,1.734053
2020-11-15 21:42:31.545,1.698052,1.732678,1.738803,1.733928
2020-11-15 21:42:31.562,1.695552,1.732178,1.741303,1.733803
2020-11-15 21:42:31.579,1.695302,1.728053,1.740303,1.734803
2020-11-15 21:42:31.596,1.695552,1.728803,1.737803,1.734178
2020-11-15 21:42:31.613,1.697052,1.729053,1.733928,1.734553
2020-11-15 21:42:31.630,1.698052,1.730303,1.735428,1.733678
2020-11-15 21:42:31.647,1.697427,1.734553,1.736928,1.733428
2020-11-15 21:42:31.664,1.696552,1.731678,1.742928,1.733303
2020-11-15 21:42:31.681,1.695677,1.730553,1.740553,1.733428
2020-11-15 21:42:31.698,1.696177,1.727803,1.740803,1.734678
2020-11-15 21:42:31.715,1.696427,1.729053,1.736178,1.734303
2020-11-15 21:42:31.732,1.697677,1.729053,1.734928,1.734678
2020-11-15 21:42:31.749,1.696927,1.733928,1.735303,1.733303
2020-11-15 21:42:31.766,1.696802,1.732428,1.736428,1.734178
2020-11-15 21:42:31.783,1.696052,1.732178,1.743678,1.733678
2020-11-15 21:42:31.800,1.695802,1.730303,1.740678,1.734428
2020-11-15 21:42:31.817,1.696552,1.726803,1.739428,1.734303
2020-11-15 21:42:31.834,1.696802,1.729053,1.732678,1.734428
2020-11-15 21:42:31.852,1.696927,1.729553,1.735553,1.733803
2020-11-15 21:42:31.869,1.697302,1.733553,1.735053,1.732428
2020-11-15 21:42:31.885,1.696552,1.731678,1.740428,1.733303
2020-11-15 21:42:31.903,1.694802,1.731303,1.740428,1.734303
2020-11-15 21:42:31.920,1.697052,1.727303,1.740053,1.735178
2020-11-15 21:42:31.937,1.695677,1.728803,1.738553,1.734803
2020-11-15 21:42:31.954,1.697802,1.728553,1.732428,1.734803
2020-11-15 21:42:31.971,1.697052,1.730928,1.735553,1.733678
2020-11-15 21:42:31.988,1.696802,1.733928,1.735428,1.733553
2020-11-15 21:42:32.005,1.695802,1.732428,1.740928,1.733553
2020-11-15 21:42:32.022,1.694427,1.731678,1.739928,1.734178
2020-11-15 21:42:32.039,1.695927,1.727053,1.739428,1.734428
2020-11-15 21:42:32.056,1.696427,1.728303,1.734678,1.733678
2020-11-15 21:42:32.073,1.698302,1.728803,1.735428,1.734053
2020-11-15 21:42:32.090,1.697052,1.731303,1.735678,1.732803
2020-11-15 21:42:32.107,1.697177,1.732303,1.737553,1.733928
2020-11-15 21:42:32.124,1.695552,1.732303,1.743053,1.734178
2020-11-15 21:42:32.141,1.695552,1.729678,1.739928,1.734928
2020-11-15 21:42:32.158,1.696427,1.727678,1.739803,1.735053
2020-11-15 21:42:32.175,1.696802,1.728678,1.734053,1.734178
2020-11-15 21:42:32.192,1.697552,1.727553,1.732553,1.735178
2020-11-15 21:42:32.210,1.696427,1.732553,1.735303,1.733303
2020-11-15 21:42:32.227,1.696802,1.732428,1.738303,1.733553
2020-11-15 21:42:32.244,1.695677,1.731928,1.742428,1.733303
2020-11-15 21:42:32.261,1.695927,1.731053,1.740178,1.734303
2020-11-15 21:42:32.278,1.695552,1.726428,1.739303,1.733553
2020-11-15 21:42:32.295,1.697302,1.728303,1.733053,1.733928
2020-11-15 21:42:32.312,1.697677,1.728178,1.735178,1.733303
2020-11-15 21:42:32.329,1.697302,1.734428,1.734803,1.733553
2020-11-15 21:42:32.346,1.696552,1.731928,1.738928,1.733428
2020-11-15 21:42:32.363,1.694677,1.731803,1.740803,1.734053
2020-11-15 21:42:32.380,1.695677,1.727928,1.739803,1.734803
2020-11-15 21:42:32.397,1.695802,1.728678,1.738928,1.734428
2020-11-15 21:42:32.414,1.696802,1.729428,1.733553,1.734178
2020-11-15 21:42:32.431,1.698052,1.730553,1.735553,1.732553
2020-11-15 21:42:32.448,1.696427,1.734053,1.737053,1.733678
2020-11-15 21:42:32.465,1.696302,1.732303,1.743428,1.733053
2020-11-15 21:42:32.482,1.695927,1.731178,1.739803,1.733678
2020-11-15 21:42:32.499,1.696052,1.727928,1.740678,1.734553
2020-11-15 21:42:32.516,1.696677,1.728428,1.736053,1.734553
2020-11-15 21:42:32.533,1.698302,1.729303,1.735053,1.734053
2020-11-15 21:42:32.550,1.696927,1.732678,1.735678,1.733178
2020-11-15 21:42:32.567,1.696552,1.731803,1.736178,1.733678
2020-11-15 21:42:32.584,1.695677,1.731553,1.743053,1.733428
2020-11-15 21:42:32.601,1.695552,1.729803,1.738928,1.733928
2020-11-15 21:42:32.618,1.695052,1.726803,1.739428,1.733678
2020-11-15 21:42:32.635,1.695177,1.727928,1.732053,1.734928
2020-11-15 21:42:32.652,1.697302,1.729803,1.735553,1.734303
2020-11-15 21:42:32.669,1.697052,1.733178,1.735553,1.732678
2020-11-15 21:42:32.686,1.696052,1.731553,1.739678,1.732928
2020-11-15 21:42:32.703,1.695302,1.732053,1.739803,1.733303
2020-11-15 21:42:32.720,1.695802,1.728678,1.739553,1.733553
2020-11-15 21:42:32.737,1.695802,1.728428,1.738428,1.733928
2020-11-15 21:42:32.754,1.696802,1.728553,1.731928,1.734303
2020-11-15 21:42:32.771,1.697177,1.730678,1.734803,1.733303
2020-11-15 21:42:32.788,1.696552,1.732928,1.734678,1.733928
2020-11-15 21:42:32.805,1.696677,1.731803,1.740803,1.733053
2020-11-15 21:42:32.822,1.694552,1.731178,1.740303,1.734053
2020-11-15 21:42:32.839,1.695052,1.726178,1.739803,1.734178
2020-11-15 21:42:32.856,1.696427,1.728803,1.734428,1.734678
2020-11-15 21:42:32.873,1.698052,1.728303,1.735053,1.733803
2020-11-15 21:42:32.890,1.696802,1.730928,1.735428,1.732803
2020-11-15 21:42:32.907,1.696802,1.732678,1.736928,1.733178
2020-11-15 21:42:32.924,1.695302,1.731428,1.743178,1.733178
2020-11-15 21:42:32.941,1.695677,1.730678,1.739803,1.734803
2020-11-15 21:42:32.958,1.696302,1.727803,1.739928,1.733928
2020-11-15 21:42:32.975,1.696302,1.728803,1.733303,1.734303
2020-11-15 21:42:32.992,1.697427,1.730053,1.734678,1.734053
2020-11-15 21:42:33.009,1.696927,1.734053,1.734803,1.731553
2020-11-15 21:42:33.027,1.696802,1.732178,1.735928,1.733553
2020-11-15 21:42:33.044,1.695427,1.732428,1.742928,1.733678
2020-11-15 21:42:33.061,1.694802,1.730928,1.740428,1.734678
2020-11-15 21:42:33.078,1.695302,1.726803,1.739178,1.734303
2020-11-15 21:42:33.095,1.697052,1.729053,1.732678,1.734428
2020-11-15 21:42:33.112,1.697177,1.728428,1.734803,1.733928
2020-11-15 21:42:33.129,1.696927,1.732678,1.734803,1.732928
2020-11-15 21:42:33.146,1.697052,1.732053,1.738803,1.734053
2020-11-15 21:42:33.163,1.695302,1.731928,1.741553,1.734678
2020-11-15 21:42:33.180,1.695927,1.727803,1.739928,1.735428
2020-11-15 21:42:33.197,1.695552,1.728803,1.738428,1.734303
2020-11-15 21:42:33.214,1.696677,1.728803,1.731803,1.733928
2020-11-15 21:42:33.231,1.696677,1.730428,1.734678,1.733678
2020-11-15 21:42:33.248,1.696302,1.734303,1.734803,1.733303
2020-11-15 21:42:33.265,1.696427,1.732053,1.742928,1.733428
2020-11-15 21:42:33.282,1.695302,1.731178,1.740178,1.733428
2020-11-15 21:42:33.299,1.695927,1.727428,1.740428,1.734803
2020-11-15 21:42:33.316,1.696552,1.728803,1.736053,1.733053
2020-11-15 21:42:33.333,1.697927,1.728178,1.734678,1.734178
2020-11-15 21:42:33.350,1.697677,1.733428,1.736053,1.733928
2020-11-15 21:42:33.367,1.697427,1.732553,1.736678,1.733928
2020-11-15 21:42:33.384,1.695927,1.732553,1.742678,1.733053
2020-11-15 21:42:33.401,1.695677,1.730428,1.739928,1.734803
2020-11-15 21:42:33.418,1.695677,1.727053,1.739303,1.734053
2020-11-15 21:42:33.435,1.695677,1.728928,1.732678,1.733928
2020-11-15 21:42:33.452,1.697552,1.728678,1.735053,1.733803
2020-11-15 21:42:33.469,1.696427,1.732803,1.734428,1.732303
2020-11-15 21:42:33.486,1.697052,1.732303,1.740053,1.733928
2020-11-15 21:42:33.503,1.695302,1.732678,1.740053,1.733428
2020-11-15 21:42:33.521,1.695427,1.729928,1.739553,1.734803
2020-11-15 21:42:33.538,1.696052,1.727428,1.738553,1.733803
2020-11-15 21:42:33.555,1.697302,1.728803,1.732053,1.734178
2020-11-15 21:42:33.572,1.696927,1.729053,1.735678,1.733178
2020-11-15 21:42:33.589,1.696552,1.733553,1.735303,1.733303
2020-11-15 21:42:33.606,1.696552,1.731678,1.741053,1.733178
2020-11-15 21:42:33.623,1.694802,1.731678,1.740428,1.732928
2020-11-15 21:42:33.640,1.696302,1.728803,1.740303,1.735303
2020-11-15 21:42:33.657,1.696052,1.728553,1.738303,1.734803
2020-11-15 21:42:33.674,1.697552,1.728803,1.731803,1.734428
2020-11-15 21:42:33.691,1.696552,1.731428,1.734178,1.733053
2020-11-15 21:42:33.708,1.696802,1.733303,1.734803,1.733803
2020-11-15 21:42:33.725,1.695927,1.732678,1.741803,1.734053
2020-11-15 21:42:33.742,1.695802,1.731803,1.740178,1.734303
2020-11-15 21:42:33.759,1.695802,1.726678,1.739303,1.734178
2020-11-15 21:42:33.776,1.696052,1.728928,1.734178,1.734678
2020-11-15 21:42:33.793,1.698927,1.728053,1.735178,1.733428
2020-11-15 21:42:33.810,1.696802,1.731928,1.735678,1.732428
2020-11-15 21:42:33.827,1.696427,1.732053,1.737428,1.734553
2020-11-15 21:42:33.844,1.695052,1.731428,1.741928,1.734553
2020-11-15 21:42:33.862,1.695177,1.730803,1.740303,1.734303
2020-11-15 21:42:33.879,1.695677,1.726803,1.739928,1.734053
2020-11-15 21:42:33.896,1.695802,1.729053,1.736928,1.734303
2020-11-15 21:42:33.913,1.697552,1.728803,1.733303,1.734803
2020-11-15 21:42:33.930,1.697552,1.733053,1.735178,1.733803
2020-11-15 21:42:33.947,1.696677,1.732553,1.738803,1.733803
2020-11-15 21:42:33.964,1.695552,1.731803,1.742303,1.733928
2020-11-15 21:42:33.981,1.695802,1.730678,1.740428,1.734803
2020-11-15 21:42:33.998,1.695802,1.726303,1.739053,1.734053
2020-11-15 21:42:34.015,1.697302,1.728678,1.733053,1.734178
2020-11-15 21:42:34.032,1.697802,1.729178,1.735053,1.733553
2020-11-15 21:42:34.049,1.697052,1.733053,1.735803,1.733428
2020-11-15 21:42:34.066,1.697052,1.732303,1.739428,1.733428
2020-11-15 21:42:34.084,1.694927,1.732303,1.740803,1.733803
2020-11-15 21:42:34.100,1.695927,1.727928,1.739928,1.734928
2020-11-15 21:42:34.118,1.695802,1.728803,1.737928,1.733428
2020-11-15 21:42:34.134,1.696802,1.728553,1.732178,1.733928
2020-11-15 21:42:34.151,1.696927,1.729553,1.735053,1.733303
2020-11-15 21:42:34.169,1.696552,1.734053,1.734803,1.733303
2020-11-15 21:42:34.186,1.696427,1.732178,1.743928,1.733803
2020-11-15 21:42:34.203,1.696177,1.731803,1.740303,1.733928
2020-11-15 21:42:34.220,1.695802,1.727553,1.740428,1.734303
2020-11-15 21:42:34.236,1.696177,1.728178,1.736053,1.733928
2020-11-15 21:42:34.253,1.698177,1.728803,1.735178,1.734178
2020-11-15 21:42:34.270,1.697552,1.730303,1.735428,1.733678
2020-11-15 21:42:34.288,1.697302,1.732053,1.737178,1.733928
2020-11-15 21:42:34.305,1.696427,1.732553,1.743928,1.733803
2020-11-15 21:42:34.322,1.695052,1.729803,1.740303,1.735053
2020-11-15 21:42:34.339,1.695927,1.727928,1.740178,1.734303
2020-11-15 21:42:34.356,1.695677,1.728678,1.733803,1.734678
2020-11-15 21:42:34.373,1.697427,1.729678,1.735178,1.733928
2020-11-15 21:42:34.390,1.697052,1.733178,1.735803,1.733178
2020-11-15 21:42:34.407,1.696927,1.732303,1.740678,1.733303
2020-11-15 21:42:34.424,1.694802,1.732053,1.740428,1.733553
2020-11-15 21:42:34.441,1.696177,1.729178,1.740678,1.733928
2020-11-15 21:42:34.458,1.696302,1.727803,1.738803,1.733803
2020-11-15 21:42:34.475,1.697552,1.728053,1.731803,1.734428
2020-11-15 21:42:34.492,1.696802,1.731178,1.735428,1.733678
2020-11-15 21:42:34.509,1.697177,1.734178,1.735428,1.733803
2020-11-15 21:42:34.526,1.697427,1.732303,1.742178,1.734428
2020-11-15 21:42:34.543,1.695552,1.731678,1.739553,1.734678
2020-11-15 21:42:34.560,1.695427,1.726928,1.739803,1.734303
2020-11-15 21:42:34.577,1.695677,1.728428,1.734678,1.734553
2020-11-15 21:42:34.594,1.698802,1.729678,1.735553,1.733178
2020-11-15 21:42:34.611,1.696802,1.731303,1.735303,1.732678
2020-11-15 21:42:34.628,1.696427,1.732803,1.737303,1.733553
2020-11-15 21:42:34.645,1.695177,1.732553,1.743678,1.733178
2020-11-15 21:42:34.662,1.696052,1.730178,1.740803,1.733678
2020-11-15 21:42:34.680,1.696052,1.728303,1.740553,1.734428
2020-11-15 21:42:34.697,1.696177,1.728678,1.737178,1.734303
2020-11-15 21:42:34.714,1.697677,1.729678,1.733803,1.734678
2020-11-15 21:42:34.731,1.697677,1.732928,1.735303,1.733803
2020-11-15 21:42:34.748,1.697802,1.732928,1.736303,1.734053
2020-11-15 21:42:34.765,1.696177,1.732178,1.741928,1.733803
2020-11-15 21:42:34.782,1.695052,1.732053,1.740053,1.735178
2020-11-15 21:42:34.799,1.696427,1.726803,1.738803,1.734303
2020-11-15 21:42:34.816,1.696302,1.728678,1.733553,1.734178
2020-11-15 21:42:34.833,1.697552,1.728928,1.735553,1.734553
2020-11-15 21:42:34.850,1.698052,1.733428,1.735803,1.733053
2020-11-15 21:42:34.867,1.697427,1.732053,1.739178,1.733428
2020-11-15 21:42:34.884,1.695177,1.731178,1.741428,1.734053
2020-11-15 21:42:34.901,1.695802,1.728303,1.740428,1.735303
2020-11-15 21:42:34.918,1.696427,1.728678,1.738928,1.734053
2020-11-15 21:42:34.935,1.696927,1.729303,1.733178,1.734928
2020-11-15 21:42:34.952,1.697552,1.730803,1.735428,1.733803
2020-11-15 21:42:34.969,1.696677,1.735178,1.735303,1.733678
2020-11-15 21:42:34.986,1.696552,1.732178,1.739428,1.733803
2020-11-15 21:42:35.003,1.694927,1.732803,1.740678,1.733803
2020-11-15 21:42:35.020,1.695927,1.728053,1.741053,1.735053
2020-11-15 21:42:35.037,1.696802,1.728803,1.736928,1.734928
2020-11-15 21:42:35.054,1.697802,1.729553,1.734803,1.734303
2020-11-15 21:42:35.071,1.698052,1.730428,1.735803,1.733553
2020-11-15 21:42:35.088,1.697552,1.733803,1.736803,1.732803
2020-11-15 21:42:35.105,1.696552,1.731553,1.743053,1.732803
2020-11-15 21:42:35.122,1.696302,1.731303,1.740303,1.734928
2020-11-15 21:42:35.139,1.696552,1.726803,1.740303,1.734928
2020-11-15 21:42:35.156,1.696677,1.729678,1.735678,1.734678
2020-11-15 21:42:35.173,1.697927,1.728803,1.735303,1.734928
2020-11-15 21:42:35.190,1.697302,1.733553,1.735553,1.734053
2020-11-15 21:42:35.207,1.697427,1.732803,1.736803,1.734178
2020-11-15 21:42:35.224,1.695802,1.732178,1.743678,1.734678
2020-11-15 21:42:35.241,1.696802,1.730678,1.741053,1.734553
2020-11-15 21:42:35.258,1.696427,1.727803,1.739553,1.734803
2020-11-15 21:42:35.275,1.697427,1.728803,1.732178,1.735303
2020-11-15 21:42:35.292,1.697927,1.729553,1.735928,1.733553
2020-11-15 21:42:35.309,1.697552,1.733428,1.735553,1.733178
2020-11-15 21:42:35.326,1.697427,1.733303,1.741428,1.734178
2020-11-15 21:42:35.343,1.695052,1.731303,1.740428,1.733928
2020-11-15 21:42:35.360,1.696427,1.728053,1.740053,1.735053
2020-11-15 21:42:35.377,1.696177,1.728928,1.738553,1.734303
2020-11-15 21:42:35.394,1.697177,1.728053,1.732178,1.733803
2020-11-15 21:42:35.411,1.696677,1.731178,1.735178,1.734053
2020-11-15 21:42:35.428,1.696927,1.733678,1.737803,1.733928
2020-11-15 21:42:35.445,1.696427,1.732428,1.743803,1.733678
2020-11-15 21:42:35.462,1.695802,1.731303,1.740928,1.734553
2020-11-15 21:42:35.479,1.697052,1.727303,1.740303,1.734178
2020-11-15 21:42:35.496,1.696302,1.727553,1.738303,1.734053
2020-11-15 21:42:35.514,1.698677,1.728803,1.732928,1.734053
2020-11-15 21:42:35.531,1.697427,1.729803,1.735803,1.733928
2020-11-15 21:42:35.548,1.697177,1.733178,1.736178,1.734053
2020-11-15 21:42:35.565,1.696802,1.730803,1.742553,1.733928
2020-11-15 21:42:35.583,1.695802,1.731553,1.740678,1.734178
2020-11-15 21:42:35.600,1.696052,1.728303,1.740928,1.734428
2020-11-15 21:42:35.617,1.696927,1.729303,1.737928,1.734553
2020-11-15 21:42:35.634,1.697802,1.729678,1.733553,1.734428
2020-11-15 21:42:35.651,1.697177,1.732678,1.735803,1.733428
2020-11-15 21:42:35.668,1.697677,1.733303,1.736428,1.734178
2020-11-15 21:42:35.685,1.696302,1.732428,1.742428,1.734178
2020-11-15 21:42:35.702,1.695802,1.730803,1.740428,1.734678
2020-11-15 21:42:35.719,1.696427,1.726178,1.739428,1.734553
2020-11-15 21:42:35.736,1.696552,1.728803,1.733178,1.734303
2020-11-15 21:42:35.753,1.697677,1.729178,1.735303,1.733928
2020-11-15 21:42:35.770,1.696927,1.733303,1.735678,1.733553
2020-11-15 21:42:35.787,1.697177,1.731928,1.738678,1.733428
2020-11-15 21:42:35.804,1.695927,1.731428,1.742303,1.734053
2020-11-15 21:42:35.821,1.696302,1.731053,1.741053,1.734428
2020-11-15 21:42:35.838,1.695927,1.726428,1.739053,1.734178
2020-11-15 21:42:35.855,1.697552,1.728928,1.733428,1.733303
2020-11-15 21:42:35.872,1.697802,1.728928,1.735428,1.733803
2020-11-15 21:42:35.889,1.697052,1.734678,1.735678,1.733678
2020-11-15 21:42:35.906,1.696927,1.732178,1.739053,1.733553
2020-11-15 21:42:35.923,1.695052,1.732428,1.741053,1.734678
2020-11-15 21:42:35.940,1.696177,1.728428,1.740178,1.734553
2020-11-15 21:42:35.957,1.695552,1.728928,1.738303,1.734553
2020-11-15 21:42:35.974,1.697052,1.729303,1.732303,1.733678
2020-11-15 21:42:35.992,1.696802,1.730553,1.735303,1.733678
2020-11-15 21:42:36.009,1.697677,1.735053,1.735553,1.734428
2020-11-15 21:42:36.026,1.697427,1.732303,1.740053,1.733803
2020-11-15 21:42:36.043,1.695052,1.731928,1.739553,1.734428
2020-11-15 21:42:36.060,1.696052,1.727928,1.740178,1.734928
2020-11-15 21:42:36.077,1.695927,1.728928,1.737928,1.734803
2020-11-15 21:42:36.094,1.697052,1.729178,1.735428,1.734678
2020-11-15 21:42:36.111,1.697052,1.731053,1.736053,1.732678
2020-11-15 21:42:36.128,1.697552,1.734053,1.737178,1.732928
2020-11-15 21:42:36.145,1.695677,1.732053,1.743803,1.733678
2020-11-15 21:42:36.162,1.696552,1.731678,1.740553,1.733553
2020-11-15 21:42:36.179,1.696177,1.727303,1.740428,1.734553
2020-11-15 21:42:36.196,1.696552,1.728678,1.734553,1.734428
2020-11-15 21:42:36.213,1.698052,1.729428,1.735428,1.734303
2020-11-15 21:42:36.230,1.697302,1.733928,1.735553,1.733928
2020-11-15 21:42:36.247,1.697552,1.732928,1.736928,1.734303
2020-11-15 21:42:36.264,1.695802,1.732553,1.743928,1.734053
2020-11-15 21:42:36.281,1.695677,1.729678,1.739553,1.734928
2020-11-15 21:42:36.298,1.695677,1.727303,1.739053,1.734428
2020-11-15 21:42:36.315,1.697177,1.728053,1.732178,1.733303
2020-11-15 21:42:36.333,1.698552,1.728928,1.735303,1.734303
2020-11-15 21:42:36.350,1.697802,1.731928,1.735553,1.733553
2020-11-15 21:42:36.367,1.697427,1.732303,1.737803,1.733803
2020-11-15 21:42:36.384,1.696052,1.732553,1.743928,1.732678
2020-11-15 21:42:36.401,1.695677,1.730178,1.740178,1.734178
2020-11-15 21:42:36.418,1.696427,1.728428,1.740178,1.734428
2020-11-15 21:42:36.435,1.696802,1.729178,1.734178,1.734178
2020-11-15 21:42:36.452,1.698302,1.730303,1.735178,1.734303
2020-11-15 21:42:36.469,1.697677,1.734553,1.735428,1.733803
2020-11-15 21:42:36.486,1.696552,1.732553,1.738178,1.733928
2020-11-15 21:42:36.503,1.695552,1.732178,1.742053,1.733928
2020-11-15 21:42:36.520,1.695177,1.729053,1.739928,1.734678
2020-11-15 21:42:36.537,1.696552,1.729428,1.738053,1.734553
2020-11-15 21:42:36.554,1.698052,1.729178,1.733428,1.734178
2020-11-15 21:42:36.571,1.697427,1.729678,1.735678,1.733053
2020-11-15 21:42:36.588,1.697927,1.734303,1.736928,1.733428
2020-11-15 21:42:36.605,1.697427,1.732178,1.742553,1.733428
2020-11-15 21:42:36.622,1.695927,1.731303,1.741053,1.735178
2020-11-15 21:42:36.639,1.695052,1.726803,1.740678,1.734803
2020-11-15 21:42:36.656,1.696802,1.728928,1.736678,1.734553
2020-11-15 21:42:36.673,1.697927,1.729178,1.733428,1.734178
2020-11-15 21:42:36.690,1.696677,1.732803,1.735553,1.733178
2020-11-15 21:42:36.707,1.696927,1.732428,1.739053,1.733928
2020-11-15 21:42:36.724,1.695802,1.732178,1.742803,1.733803
2020-11-15 21:42:36.741,1.696927,1.730803,1.740303,1.734803
2020-11-15 21:42:36.758,1.695677,1.726053,1.739428,1.734303
2020-11-15 21:42:36.775,1.697052,1.728428,1.733553,1.735053
2020-11-15 21:42:36.792,1.698427,1.730303,1.735803,1.734428
2020-11-15 21:42:36.809,1.697302,1.734928,1.735928,1.733803
2020-11-15 21:42:36.826,1.696927,1.732303,1.739678,1.733803
2020-11-15 21:42:36.843,1.695552,1.732178,1.741678,1.733928
2020-11-15 21:42:36.860,1.695927,1.727678,1.739678,1.735428
2020-11-15 21:42:36.877,1.695802,1.728928,1.737053,1.734428
2020-11-15 21:42:36.894,1.698052,1.728928,1.734053,1.734678
2020-11-15 21:42:36.911,1.697177,1.730428,1.735803,1.733803
2020-11-15 21:42:36.928,1.697427,1.734428,1.736428,1.733678
2020-11-15 21:42:36.945,1.696052,1.731803,1.743303,1.733553
2020-11-15 21:42:36.962,1.696427,1.731928,1.740803,1.734678
2020-11-15 21:42:36.979,1.695927,1.726553,1.741178,1.734678
2020-11-15 21:42:36.996,1.696552,1.729553,1.736053,1.734803
2020-11-15 21:42:37.013,1.698427,1.729303,1.735178,1.734553
2020-11-15 21:42:37.030,1.697552,1.733928,1.735678,1.733428
2020-11-15 21:42:37.047,1.697302,1.733428,1.736303,1.733803
2020-11-15 21:42:37.064,1.695302,1.732303,1.744053,1.734678
2020-11-15 21:42:37.081,1.696302,1.730928,1.740178,1.734678
2020-11-15 21:42:37.098,1.696052,1.726678,1.739928,1.735053
2020-11-15 21:42:37.115,1.697177,1.729428,1.733428,1.734553
2020-11-15 21:42:37.132,1.697427,1.729928,1.736178,1.734178
2020-11-15 21:42:37.149,1.697927,1.730678,1.735803,1.733678
2020-11-15 21:42:37.167,1.697552,1.733678,1.737678,1.734053
2020-11-15 21:42:37.184,1.696052,1.731928,1.743803,1.734678
2020-11-15 21:42:37.201,1.696302,1.730928,1.739803,1.734928
2020-11-15 21:42:37.218,1.696427,1.728428,1.739928,1.734678
2020-11-15 21:42:37.235,1.696427,1.728928,1.734053,1.734678
2020-11-15 21:42:37.252,1.698302,1.730178,1.735178,1.734178
2020-11-15 21:42:37.269,1.697552,1.734803,1.735803,1.733553
2020-11-15 21:42:37.286,1.697302,1.732428,1.741553,1.734303
2020-11-15 21:42:37.303,1.695927,1.733053,1.740053,1.733928
2020-11-15 21:42:37.320,1.696177,1.730178,1.741053,1.733928
2020-11-15 21:42:37.337,1.696927,1.728053,1.739053,1.734678
2020-11-15 21:42:37.354,1.697677,1.729053,1.732428,1.735053
2020-11-15 21:42:37.371,1.697927,1.731928,1.736053,1.733678
2020-11-15 21:42:37.388,1.697927,1.734178,1.736053,1.734303
2020-11-15 21:42:37.405,1.696802,1.732428,1.742428,1.733928
2020-11-15 21:42:37.422,1.694802,1.731928,1.740803,1.734928
2020-11-15 21:42:37.439,1.696177,1.727553,1.740178,1.734928
2020-11-15 21:42:37.456,1.696552,1.728803,1.735428,1.735178
2020-11-15 21:42:37.473,1.698552,1.729053,1.735553,1.733803
2020-11-15 21:42:37.490,1.697302,1.732303,1.736053,1.733553
2020-11-15 21:42:37.507,1.697802,1.732803,1.737928,1.734053
2020-11-15 21:42:37.524,1.695927,1.732428,1.743303,1.733553
2020-11-15 21:42:37.541,1.696927,1.731178,1.740678,1.734928
2020-11-15 21:42:37.558,1.696927,1.729053,1.740178,1.735053
2020-11-15 21:42:37.575,1.695927,1.728928,1.733428,1.735428
2020-11-15 21:42:37.592,1.698302,1.730928,1.735553,1.734803
2020-11-15 21:42:37.609,1.697427,1.735303,1.735428,1.734178
2020-11-15 21:42:37.626,1.697052,1.732803,1.738053,1.734428
2020-11-15 21:42:37.643,1.695427,1.733053,1.741303,1.734303
2020-11-15 21:42:37.660,1.696177,1.729303,1.740678,1.735428
2020-11-15 21:42:37.677,1.696927,1.729053,1.739053,1.735678
2020-11-15 21:42:37.694,1.698052,1.729178,1.733803,1.734428
2020-11-15 21:42:37.711,1.697802,1.730053,1.735928,1.734428
2020-11-15 21:42:37.728,1.697677,1.733303,1.736053,1.734303
2020-11-15 21:42:37.745,1.697052,1.732678,1.742303,1.733928
2020-11-15 21:42:37.762,1.695427,1.731178,1.740178,1.734553
2020-11-15 21:42:37.779,1.696427,1.727303,1.740303,1.734678
2020-11-15 21:42:37.796,1.696677,1.729053,1.736803,1.735053
2020-11-15 21:42:37.813,1.697802,1.729303,1.735428,1.734803
2020-11-15 21:42:37.830,1.697177,1.733178,1.736303,1.733678
2020-11-15 21:42:37.847,1.697677,1.732428,1.738553,1.734178
2020-11-15 21:42:37.864,1.696552,1.731803,1.742928,1.733553
2020-11-15 21:42:37.881,1.696177,1.731553,1.741303,1.734678
2020-11-15 21:42:37.898,1.696677,1.729428,1.739803,1.735178
2020-11-15 21:42:37.915,1.697052,1.729428,1.733803,1.734678
2020-11-15 21:42:37.932,1.698552,1.730428,1.735553,1.734303
2020-11-15 21:42:37.949,1.697177,1.734803,1.736178,1.734303
2020-11-15 21:42:37.966,1.697052,1.732803,1.738678,1.733928
2020-11-15 21:42:37.984,1.696427,1.732928,1.742053,1.734303
2020-11-15 21:42:38.001,1.696427,1.731053,1.740928,1.734928
2020-11-15 21:42:38.018,1.696802,1.727053,1.739928,1.735053
2020-11-15 21:42:38.035,1.697552,1.730053,1.733678,1.734803
2020-11-15 21:42:38.052,1.698677,1.729303,1.735178,1.734053
2020-11-15 21:42:38.069,1.697927,1.733303,1.735678,1.734553
2020-11-15 21:42:38.086,1.697677,1.732803,1.740553,1.734428
2020-11-15 21:42:38.103,1.696177,1.733053,1.741553,1.734928
2020-11-15 21:42:38.120,1.696927,1.731053,1.741053,1.734178
2020-11-15 21:42:38.137,1.696677,1.727178,1.739803,1.735053
2020-11-15 21:42:38.154,1.697927,1.729928,1.733053,1.734803
2020-11-15 21:42:38.171,1.697927,1.730803,1.736303,1.734428
2020-11-15 21:42:38.188,1.697177,1.734928,1.735928,1.734053
2020-11-15 21:42:38.205,1.697177,1.732678,1.740303,1.733928
2020-11-15 21:42:38.222,1.695802,1.732428,1.740678,1.734678
2020-11-15 21:42:38.239,1.696677,1.727928,1.740678,1.735428
2020-11-15 21:42:38.256,1.696927,1.729178,1.736553,1.734928
2020-11-15 21:42:38.273,1.698802,1.729178,1.735553,1.734803
2020-11-15 21:42:38.290,1.698427,1.731053,1.736053,1.733803
2020-11-15 21:42:38.307,1.697927,1.733803,1.737678,1.733928
2020-11-15 21:42:38.324,1.697177,1.732928,1.743803,1.733678
2020-11-15 21:42:38.341,1.696927,1.732053,1.740928,1.734428
2020-11-15 21:42:38.358,1.696552,1.727803,1.740928,1.734803
2020-11-15 21:42:38.375,1.697677,1.730053,1.735553,1.735428
2020-11-15 21:42:38.392,1.698677,1.730678,1.735428,1.734803
2020-11-15 21:42:38.409,1.698677,1.734678,1.736553,1.733803
2020-11-15 21:42:38.426,1.697677,1.733178,1.737553,1.735053
2020-11-15 21:42:38.443,1.696427,1.732803,1.743553,1.734928
2020-11-15 21:42:38.460,1.696677,1.730928,1.741053,1.734803
2020-11-15 21:42:38.477,1.696552,1.728428,1.740178,1.734803
2020-11-15 21:42:38.494,1.697552,1.729178,1.732678,1.735428
2020-11-15 21:42:38.511,1.698177,1.730553,1.736178,1.734803
2020-11-15 21:42:38.528,1.698302,1.733553,1.736303,1.733803
2020-11-15 21:42:38.545,1.698427,1.732678,1.742553,1.733928
2020-11-15 21:42:38.562,1.696177,1.732803,1.740803,1.735303
2020-11-15 21:42:38.579,1.696677,1.728553,1.741303,1.735053
2020-11-15 21:42:38.596,1.696052,1.728803,1.739428,1.735053
2020-11-15 21:42:38.613,1.698302,1.729428,1.732803,1.734553
2020-11-15 21:42:38.630,1.698177,1.732053,1.735428,1.734553
2020-11-15 21:42:38.647,1.697302,1.734178,1.736428,1.735053
2020-11-15 21:42:38.664,1.696677,1.733178,1.744553,1.734428
2020-11-15 21:42:38.681,1.697302,1.732178,1.740303,1.734928
2020-11-15 21:42:38.698,1.696802,1.727928,1.740803,1.735303
2020-11-15 21:42:38.715,1.697052,1.729428,1.735178,1.734928
2020-11-15 21:42:38.732,1.698927,1.729178,1.736303,1.734803
2020-11-15 21:42:38.749,1.697927,1.733928,1.736678,1.735303
2020-11-15 21:42:38.766,1.698427,1.733678,1.737428,1.734303
2020-11-15 21:42:38.783,1.696052,1.733053,1.743678,1.734053
2020-11-15 21:42:38.800,1.696802,1.731303,1.740803,1.734928
2020-11-15 21:42:38.818,1.696552,1.727553,1.740428,1.734678
2020-11-15 21:42:38.835,1.697177,1.729303,1.734178,1.734928
2020-11-15 21:42:38.852,1.699427,1.729428,1.735428,1.734928
2020-11-15 21:42:38.869,1.698302,1.733053,1.736303,1.733678
2020-11-15 21:42:38.886,1.697802,1.732553,1.738803,1.733803
2020-11-15 21:42:38.903,1.696927,1.732553,1.743803,1.734928
2020-11-15 21:42:38.920,1.696177,1.730178,1.740553,1.735303
2020-11-15 21:42:38.937,1.696427,1.729303,1.739928,1.735428
2020-11-15 21:42:38.954,1.698052,1.729553,1.734053,1.735178
2020-11-15 21:42:38.971,1.698552,1.731428,1.735803,1.734303
2020-11-15 21:42:38.988,1.697927,1.735053,1.735428,1.734178
2020-11-15 21:42:39.005,1.697677,1.732803,1.742803,1.735178
2020-11-15 21:42:39.022,1.696302,1.732803,1.741553,1.734928
2020-11-15 21:42:39.039,1.697177,1.728928,1.741303,1.735928
2020-11-15 21:42:39.056,1.697052,1.728928,1.737678,1.734553
2020-11-15 21:42:39.073,1.698677,1.729928,1.734053,1.734678
2020-11-15 21:42:39.090,1.698552,1.730803,1.736928,1.734428
2020-11-15 21:42:39.107,1.697927,1.735928,1.737428,1.734678
2020-11-15 21:42:39.124,1.697427,1.733178,1.742678,1.734053
2020-11-15 21:42:39.141,1.696427,1.731678,1.741178,1.735303
2020-11-15 21:42:39.158,1.697302,1.728053,1.741553,1.735428
2020-11-15 21:42:39.175,1.696427,1.729803,1.737178,1.735553
2020-11-15 21:42:39.192,1.698427,1.730053,1.734928,1.735553
2020-11-15 21:42:39.209,1.697802,1.733553,1.736178,1.735053
2020-11-15 21:42:39.226,1.698427,1.732928,1.739178,1.735178
2020-11-15 21:42:39.243,1.696427,1.732303,1.742678,1.734553
2020-11-15 21:42:39.260,1.696927,1.732053,1.740803,1.735303
2020-11-15 21:42:39.277,1.696552,1.727678,1.740303,1.735303
2020-11-15 21:42:39.294,1.697677,1.729178,1.733928,1.735428
2020-11-15 21:42:39.311,1.698552,1.729428,1.735928,1.735053
2020-11-15 21:42:39.328,1.697552,1.735553,1.736178,1.734553
2020-11-15 21:42:39.345,1.698177,1.732803,1.740678,1.735428
2020-11-15 21:42:39.362,1.696302,1.733053,1.741553,1.735428
2020-11-15 21:42:39.379,1.696427,1.728928,1.741428,1.735178
2020-11-15 21:42:39.396,1.695927,1.729053,1.739303,1.735303
2020-11-15 21:42:39.413,1.697302,1.729428,1.734803,1.735303
2020-11-15 21:42:39.430,1.698552,1.730803,1.736678,1.734678
2020-11-15 21:42:39.447,1.698802,1.735053,1.737803,1.734428
2020-11-15 21:42:39.464,1.697302,1.732803,1.743553,1.734053
2020-11-15 21:42:39.481,1.696427,1.732803,1.741678,1.734178
2020-11-15 21:42:39.498,1.697552,1.727803,1.741303,1.735053
2020-11-15 21:42:39.515,1.697552,1.729803,1.736928,1.735428
2020-11-15 21:42:39.532,1.698927,1.730428,1.735928,1.734928
2020-11-15 21:42:39.549,1.697802,1.734678,1.735428,1.734678
2020-11-15 21:42:39.566,1.698052,1.732678,1.737428,1.734553
2020-11-15 21:42:39.583,1.696427,1.732678,1.743303,1.734178
2020-11-15 21:42:39.600,1.696677,1.731053,1.740178,1.735428
2020-11-15 21:42:39.617,1.697177,1.727678,1.739553,1.735178
2020-11-15 21:42:39.635,1.697927,1.729553,1.736053,1.734803
2020-11-15 21:42:39.652,1.699802,1.728928,1.736928,1.735178
2020-11-15 21:42:39.669,1.698802,1.732303,1.736428,1.734428
2020-11-15 21:42:39.686,1.698677,1.733678,1.737678,1.734928
2020-11-15 21:42:39.703,1.697052,1.733053,1.744678,1.735178
2020-11-15 21:42:39.720,1.697427,1.731303,1.741053,1.735678
2020-11-15 21:42:39.737,1.697177,1.728553,1.740928,1.735678
2020-11-15 21:42:39.754,1.697302,1.729428,1.735053,1.735428
2020-11-15 21:42:39.771,1.698677,1.730303,1.735553,1.734928
2020-11-15 21:42:39.788,1.697927,1.734553,1.736303,1.734928
2020-11-15 21:42:39.805,1.698177,1.733178,1.742053,1.733928
2020-11-15 21:42:39.822,1.696552,1.733303,1.741428,1.734553
2020-11-15 21:42:39.839,1.696927,1.730303,1.741053,1.735678
2020-11-15 21:42:39.856,1.697177,1.728053,1.739303,1.735303
2020-11-15 21:42:39.873,1.698677,1.729053,1.733178,1.734803
2020-11-15 21:42:39.890,1.698802,1.732678,1.736553,1.734678
2020-11-15 21:42:39.907,1.698052,1.734303,1.736303,1.734803
2020-11-15 21:42:39.924,1.697552,1.733178,1.742053,1.735303
2020-11-15 21:42:39.941,1.696677,1.732928,1.740928,1.735053
2020-11-15 21:42:39.958,1.697177,1.728178,1.741428,1.735553
2020-11-15 21:42:39.975,1.697427,1.729553,1.735678,1.735678
2020-11-15 21:42:39.992,1.699552,1.729553,1.735928,1.735178
2020-11-15 21:42:40.009,1.698052,1.732553,1.736178,1.733928
2020-11-15 21:42:40.026,1.698177,1.732928,1.737428,1.733803
2020-11-15 21:42:40.043,1.696677,1.732303,1.744178,1.734303
2020-11-15 21:42:40.060,1.696802,1.731428,1.741303,1.735928
2020-11-15 21:42:40.077,1.697177,1.729053,1.740803,1.735428
2020-11-15 21:42:40.094,1.697552,1.729678,1.735053,1.735553
2020-11-15 21:42:40.111,1.698677,1.730678,1.736053,1.735053
2020-11-15 21:42:40.128,1.698177,1.735428,1.735928,1.734303
2020-11-15 21:42:40.145,1.697927,1.733803,1.742553,1.734303
2020-11-15 21:42:40.162,1.696427,1.733553,1.741303,1.735428
2020-11-15 21:42:40.179,1.697552,1.730678,1.741678,1.735803
2020-11-15 21:42:40.196,1.697552,1.729678,1.739553,1.734803
2020-11-15 21:42:40.213,1.698427,1.729178,1.733428,1.734553
2020-11-15 21:42:40.230,1.699052,1.730928,1.736428,1.734178
2020-11-15 21:42:40.247,1.697677,1.733428,1.736803,1.735053
2020-11-15 21:42:40.264,1.697427,1.733428,1.742803,1.735178
2020-11-15 21:42:40.281,1.696927,1.732178,1.740928,1.735303
2020-11-15 21:42:40.298,1.696302,1.727178,1.740553,1.735178
2020-11-15 21:42:40.315,1.696302,1.729678,1.735053,1.735803
2020-11-15 21:42:40.332,1.699177,1.730053,1.736303,1.734928
2020-11-15 21:42:40.349,1.698302,1.733053,1.737053,1.733803
2020-11-15 21:42:40.366,1.697927,1.732553,1.738428,1.733928
2020-11-15 21:42:40.383,1.696802,1.732928,1.744053,1.734803
2020-11-15 21:42:40.400,1.697177,1.730303,1.741303,1.735928
2020-11-15 21:42:40.417,1.697427,1.727553,1.740553,1.734928
2020-11-15 21:42:40.434,1.697802,1.729303,1.734803,1.735303
2020-11-15 21:42:40.451,1.699052,1.729678,1.734428,1.735303
2020-11-15 21:42:40.469,1.698677,1.733553,1.736178,1.734553
2020-11-15 21:42:40.486,1.698302,1.734178,1.737428,1.735303
2020-11-15 21:42:40.503,1.697177,1.733178,1.743053,1.734803
2020-11-15 21:42:40.520,1.696427,1.732053,1.740678,1.735678
2020-11-15 21:42:40.537,1.696427,1.727553,1.740303,1.736053
2020-11-15 21:42:40.554,1.696427,1.729928,1.734303,1.735553
2020-11-15 21:42:40.571,1.699052,1.730803,1.736053,1.734678
2020-11-15 21:42:40.588,1.698427,1.734178,1.736303,1.734178
2020-11-15 21:42:40.605,1.697677,1.732803,1.739928,1.734928
2020-11-15 21:42:40.622,1.696427,1.732178,1.742428,1.734178
2020-11-15 21:42:40.639,1.697052,1.728053,1.740428,1.736178
2020-11-15 21:42:40.656,1.697052,1.729803,1.739928,1.735178
2020-11-15 21:42:40.673,1.697552,1.729928,1.733053,1.735178
2020-11-15 21:42:40.690,1.698177,1.731553,1.736553,1.734928
2020-11-15 21:42:40.707,1.698177,1.735428,1.736053,1.734678
2020-11-15 21:42:40.724,1.697677,1.733303,1.743678,1.734053
2020-11-15 21:42:40.741,1.697052,1.732678,1.741178,1.734803
2020-11-15 21:42:40.758,1.696802,1.728303,1.741803,1.735928
2020-11-15 21:42:40.775,1.697052,1.729303,1.737678,1.735303
2020-11-15 21:42:40.792,1.699802,1.729178,1.735678,1.734803
2020-11-15 21:42:40.809,1.698677,1.730803,1.736428,1.734553
2020-11-15 21:42:40.826,1.698177,1.733678,1.737928,1.734678
2020-11-15 21:42:40.843,1.697177,1.732803,1.743928,1.734178
2020-11-15 21:42:40.860,1.696927,1.731803,1.741428,1.735428
2020-11-15 21:42:40.877,1.696677,1.728053,1.740803,1.735428
2020-11-15 21:42:40.894,1.697177,1.730178,1.736303,1.735553
2020-11-15 21:42:40.911,1.698927,1.730303,1.736928,1.735178
2020-11-15 21:42:40.928,1.698177,1.734928,1.736178,1.733803
2020-11-15 21:42:40.945,1.697927,1.733053,1.741053,1.735053
2020-11-15 21:42:40.962,1.696427,1.732553,1.741553,1.734678
2020-11-15 21:42:40.979,1.696802,1.730803,1.741303,1.735053
2020-11-15 21:42:40.996,1.697427,1.727553,1.740178,1.735553
2020-11-15 21:42:41.013,1.698427,1.729678,1.733678,1.735428
2020-11-15 21:42:41.030,1.698052,1.732428,1.736553,1.735303
2020-11-15 21:42:41.047,1.698177,1.735553,1.735803,1.734678
2020-11-15 21:42:41.064,1.697302,1.732303,1.741428,1.734803
2020-11-15 21:42:41.081,1.696177,1.733553,1.741053,1.734928
2020-11-15 21:42:41.098,1.697802,1.729428,1.740803,1.735803
2020-11-15 21:42:41.115,1.696802,1.729803,1.738803,1.735553
2020-11-15 21:42:41.132,1.698052,1.729303,1.736053,1.735428
2020-11-15 21:42:41.149,1.698552,1.731803,1.736553,1.734428
2020-11-15 21:42:41.166,1.698802,1.734803,1.738428,1.734303
2020-11-15 21:42:41.183,1.696927,1.732803,1.744303,1.734803
2020-11-15 21:42:41.200,1.697427,1.732303,1.741678,1.734928
2020-11-15 21:42:41.217,1.697302,1.728178,1.741803,1.735053
2020-11-15 21:42:41.234,1.697302,1.729178,1.735678,1.735178
2020-11-15 21:42:41.251,1.699052,1.730428,1.736553,1.734678
2020-11-15 21:42:41.268,1.698052,1.734928,1.736553,1.734053
2020-11-15 21:42:41.286,1.698427,1.734178,1.736428,1.735053
2020-11-15 21:42:41.303,1.698052,1.733428,1.742303,1.735428
2020-11-15 21:42:41.320,1.695927,1.731803,1.741303,1.735803
2020-11-15 21:42:41.337,1.696677,1.727678,1.740928,1.735303
2020-11-15 21:42:41.354,1.697302,1.729678,1.735678,1.735178
2020-11-15 21:42:41.371,1.699052,1.729428,1.736178,1.734928
2020-11-15 21:42:41.388,1.698302,1.733053,1.736803,1.734303
2020-11-15 21:42:41.405,1.698552,1.733428,1.738303,1.734178
2020-11-15 21:42:41.422,1.696552,1.732928,1.744553,1.734803
2020-11-15 21:42:41.439,1.697052,1.731428,1.740553,1.735803
2020-11-15 21:42:41.456,1.696427,1.728678,1.741053,1.736428
2020-11-15 21:42:41.473,1.697802,1.729803,1.734803,1.736053
2020-11-15 21:42:41.490,1.698927,1.730678,1.736303,1.735178
2020-11-15 21:42:41.507,1.697677,1.735428,1.736678,1.734303
2020-11-15 21:42:41.524,1.697802,1.734053,1.739303,1.734678
2020-11-15 21:42:41.541,1.695552,1.732803,1.741553,1.734678
2020-11-15 21:42:41.558,1.696802,1.729678,1.741053,1.735803
2020-11-15 21:42:41.575,1.697177,1.729303,1.738928,1.735178
2020-11-15 21:42:41.592,1.698302,1.729678,1.734178,1.735178
2020-11-15 21:42:41.609,1.698677,1.729803,1.736678,1.733678
2020-11-15 21:42:41.626,1.698302,1.734678,1.736928,1.735303
2020-11-15 21:42:41.643,1.697677,1.733053,1.742678,1.734553
2020-11-15 21:42:41.660,1.696802,1.732178,1.740928,1.734178
2020-11-15 21:42:41.677,1.695927,1.727553,1.741553,1.735678
2020-11-15 21:42:41.694,1.697177,1.729553,1.737678,1.735178
2020-11-15 21:42:41.711,1.698302,1.729178,1.733428,1.734928
2020-11-15 21:42:41.728,1.697552,1.733053,1.735928,1.734053
2020-11-15 21:42:41.745,1.697677,1.733053,1.738678,1.733928
2020-11-15 21:42:41.762,1.696302,1.732303,1.742928,1.733928
2020-11-15 21:42:41.779,1.697052,1.731303,1.741053,1.735178
2020-11-15 21:42:41.796,1.696802,1.727053,1.740053,1.734428
2020-11-15 21:42:41.813,1.696927,1.728428,1.734553,1.735678
2020-11-15 21:42:41.830,1.698427,1.730303,1.736178,1.734678
2020-11-15 21:42:41.847,1.698052,1.735303,1.736303,1.734553
2020-11-15 21:42:41.864,1.697927,1.733053,1.739553,1.734428
2020-11-15 21:42:41.881,1.695927,1.732803,1.741928,1.734553
2020-11-15 21:42:41.898,1.696552,1.729553,1.740053,1.735178
2020-11-15 21:42:41.915,1.696302,1.729303,1.737678,1.735178
2020-11-15 21:42:41.932,1.698427,1.729553,1.734428,1.734678
2020-11-15 21:42:41.949,1.697552,1.730428,1.736553,1.734428
2020-11-15 21:42:41.966,1.698427,1.735178,1.736803,1.733553
2020-11-15 21:42:41.983,1.696302,1.731928,1.742928,1.733803
2020-11-15 21:42:42.000,1.696677,1.731803,1.741303,1.735928
2020-11-15 21:42:42.017,1.696802,1.727178,1.741303,1.734928
2020-11-15 21:42:42.034,1.696677,1.729053,1.736928,1.735303
2020-11-15 21:42:42.051,1.698427,1.729678,1.734178,1.735053
2020-11-15 21:42:42.068,1.697802,1.733178,1.735553,1.734178
2020-11-15 21:42:42.085,1.697302,1.732678,1.736428,1.734803
2020-11-15 21:42:42.102,1.696927,1.731928,1.743678,1.734428
2020-11-15 21:42:42.120,1.696802,1.732178,1.741428,1.735178
2020-11-15 21:42:42.137,1.696552,1.727928,1.741053,1.735428
2020-11-15 21:42:42.154,1.697052,1.729053,1.737303,1.734428
2020-11-15 21:42:42.171,1.698927,1.729303,1.736053,1.734553
2020-11-15 21:42:42.188,1.697927,1.733803,1.735803,1.733678
2020-11-15 21:42:42.205,1.697177,1.732678,1.737428,1.734553
2020-11-15 21:42:42.222,1.696802,1.732928,1.744178,1.734428
2020-11-15 21:42:42.239,1.696427,1.731053,1.740553,1.734928
2020-11-15 21:42:42.256,1.695802,1.727178,1.740178,1.735178
2020-11-15 21:42:42.273,1.696177,1.729928,1.733428,1.734928
2020-11-15 21:42:42.290,1.698052,1.729678,1.736053,1.734803
2020-11-15 21:42:42.307,1.697802,1.734053,1.736303,1.734178
2020-11-15 21:42:42.324,1.697427,1.732803,1.740928,1.734803
2020-11-15 21:42:42.341,1.696927,1.732928,1.741053,1.733678
2020-11-15 21:42:42.358,1.697177,1.728303,1.741053,1.735428
2020-11-15 21:42:42.375,1.697052,1.729678,1.739303,1.734928
2020-11-15 21:42:42.392,1.697927,1.729678,1.733178,1.735428
2020-11-15 21:42:42.409,1.697677,1.731303,1.736678,1.734678
2020-11-15 21:42:42.426,1.697802,1.734428,1.735428,1.733678
2020-11-15 21:42:42.443,1.697302,1.733178,1.744178,1.735178
2020-11-15 21:42:42.459,1.697177,1.732428,1.741053,1.734678
2020-11-15 21:42:42.476,1.696802,1.727803,1.740553,1.735553
2020-11-15 21:42:42.493,1.697177,1.728678,1.736553,1.735178
2020-11-15 21:42:42.510,1.699177,1.729928,1.736428,1.735178
2020-11-15 21:42:42.528,1.698302,1.731928,1.736303,1.734303
2020-11-15 21:42:42.544,1.698552,1.732928,1.737553,1.734428
2020-11-15 21:42:42.561,1.696677,1.733053,1.744928,1.734803
2020-11-15 21:42:42.578,1.696302,1.731053,1.740678,1.734928
2020-11-15 21:42:42.595,1.696427,1.727928,1.740553,1.735303
2020-11-15 21:42:42.612,1.697052,1.729553,1.734303,1.735303
2020-11-15 21:42:42.629,1.698302,1.730303,1.736303,1.734928
2020-11-15 21:42:42.646,1.698302,1.734428,1.736428,1.734303
2020-11-15 21:42:42.663,1.697427,1.732928,1.741303,1.733803
2020-11-15 21:42:42.680,1.695927,1.733553,1.741303,1.734303
2020-11-15 21:42:42.697,1.696427,1.730178,1.741053,1.735053
2020-11-15 21:42:42.715,1.696552,1.728178,1.739428,1.735053
2020-11-15 21:42:42.732,1.698427,1.729803,1.733053,1.735178
2020-11-15 21:42:42.749,1.698052,1.730803,1.735678,1.734178
2020-11-15 21:42:42.766,1.698302,1.734178,1.736803,1.734053
2020-11-15 21:42:42.783,1.697677,1.732303,1.741803,1.734178
2020-11-15 21:42:42.800,1.696177,1.732678,1.741428,1.735178
2020-11-15 21:42:42.817,1.696427,1.728053,1.741553,1.735428
2020-11-15 21:42:42.834,1.697052,1.729553,1.739053,1.735303
2020-11-15 21:42:42.851,1.698302,1.729928,1.732803,1.734553
2020-11-15 21:42:42.868,1.697802,1.732553,1.735928,1.733928
2020-11-15 21:42:42.885,1.697927,1.734303,1.736053,1.734053
2020-11-15 21:42:42.902,1.696802,1.732928,1.744803,1.734678
2020-11-15 21:42:42.919,1.696927,1.731928,1.741303,1.734303
2020-11-15 21:42:42.937,1.697302,1.729428,1.741553,1.735303
2020-11-15 21:42:42.954,1.696802,1.728928,1.738553,1.735303
2020-11-15 21:42:42.971,1.698427,1.729178,1.733803,1.734428
2020-11-15 21:42:42.988,1.698302,1.730428,1.736303,1.733928
2020-11-15 21:42:43.005,1.697427,1.732553,1.737303,1.734303
2020-11-15 21:42:43.022,1.696927,1.732928,1.742553,1.734803
2020-11-15 21:42:43.039,1.695552,1.731928,1.741053,1.734928
2020-11-15 21:42:43.056,1.696427,1.727678,1.740928,1.735178
2020-11-15 21:42:43.073,1.696677,1.729803,1.734803,1.734553
2020-11-15 21:42:43.090,1.699052,1.729553,1.736428,1.734678
2020-11-15 21:42:43.107,1.698302,1.732803,1.735928,1.734428
2020-11-15 21:42:43.124,1.698177,1.733678,1.739053,1.734803
2020-11-15 21:42:43.141,1.696302,1.732803,1.743428,1.733928
2020-11-15 21:42:43.158,1.696927,1.731803,1.741303,1.735428
2020-11-15 21:42:43.175,1.697052,1.726803,1.739678,1.735303
2020-11-15 21:42:43.192,1.698052,1.729928,1.734053,1.735553
2020-11-15 21:42:43.209,1.698302,1.730678,1.735678,1.734553
2020-11-15 21:42:43.226,1.697427,1.735678,1.736178,1.735178
2020-11-15 21:42:43.243,1.697552,1.733053,1.739428,1.734928
2020-11-15 21:42:43.260,1.695802,1.732803,1.742428,1.735053
2020-11-15 21:42:43.277,1.696302,1.729178,1.741803,1.735928
2020-11-15 21:42:43.294,1.697677,1.729678,1.738428,1.735053
2020-11-15 21:42:43.311,1.699052,1.729428,1.733928,1.735053
2020-11-15 21:42:43.328,1.698427,1.730803,1.736053,1.733928
2020-11-15 21:42:43.345,1.698427,1.735178,1.737178,1.733928
2020-11-15 21:42:43.362,1.697302,1.732553,1.743803,1.734428
2020-11-15 21:42:43.379,1.696177,1.731553,1.741303,1.735678
2020-11-15 21:42:43.396,1.696552,1.727803,1.741053,1.735303
2020-11-15 21:42:43.413,1.696802,1.729678,1.737303,1.735928
2020-11-15 21:42:43.430,1.698677,1.730303,1.734428,1.735053
2020-11-15 21:42:43.447,1.697552,1.734178,1.736178,1.734553
2020-11-15 21:42:43.464,1.697677,1.733553,1.739928,1.734678
2020-11-15 21:42:43.480,1.696177,1.733053,1.743053,1.734428
2020-11-15 21:42:43.497,1.697302,1.731678,1.741303,1.734803
2020-11-15 21:42:43.514,1.696927,1.726678,1.740303,1.734553
2020-11-15 21:42:43.531,1.698052,1.729053,1.733928,1.735928
2020-11-15 21:42:43.548,1.698427,1.731178,1.735928,1.734428
2020-11-15 21:42:43.565,1.698177,1.735803,1.736428,1.734803
2020-11-15 21:42:43.582,1.697927,1.733303,1.740303,1.734553
2020-11-15 21:42:43.599,1.695552,1.732678,1.741428,1.735428
2020-11-15 21:42:43.616,1.696427,1.728928,1.740053,1.735428
2020-11-15 21:42:43.633,1.696552,1.730178,1.737553,1.735178
2020-11-15 21:42:43.650,1.698927,1.729428,1.734803,1.734928
2020-11-15 21:42:43.667,1.698302,1.731178,1.736678,1.734303
2020-11-15 21:42:43.684,1.698177,1.735303,1.737928,1.734053
2020-11-15 21:42:43.701,1.697802,1.733428,1.743553,1.734678
2020-11-15 21:42:43.718,1.696552,1.732178,1.742678,1.736428
2020-11-15 21:42:43.735,1.697177,1.727678,1.741553,1.736303
2020-11-15 21:42:43.752,1.697302,1.729303,1.739428,1.735178
2020-11-15 21:42:43.770,1.698052,1.730553,1.732553,1.735428
2020-11-15 21:42:43.787,1.697927,1.732053,1.736678,1.734428
2020-11-15 21:42:43.804,1.698177,1.735053,1.737678,1.734928
2020-11-15 21:42:43.821,1.697552,1.732678,1.744553,1.734803
2020-11-15 21:42:43.838,1.697177,1.732303,1.741803,1.735178
2020-11-15 21:42:43.855,1.696802,1.728178,1.741553,1.735053
2020-11-15 21:42:43.872,1.696927,1.730303,1.736053,1.735553
2020-11-15 21:42:43.889,1.699427,1.730928,1.736803,1.734928
2020-11-15 21:42:43.906,1.698177,1.733678,1.736553,1.734928
2020-11-15 21:42:43.923,1.698302,1.734178,1.738678,1.735178
2020-11-15 21:42:43.940,1.696802,1.733178,1.744053,1.735553
2020-11-15 21:42:43.957,1.696177,1.730928,1.741053,1.735053
2020-11-15 21:42:43.974,1.697052,1.728803,1.740053,1.735553
2020-11-15 21:42:43.991,1.698802,1.730178,1.732928,1.735553
2020-11-15 21:42:44.008,1.698302,1.730053,1.736303,1.734678
2020-11-15 21:42:44.025,1.698927,1.734553,1.737178,1.734428
2020-11-15 21:42:44.042,1.697927,1.733428,1.742053,1.735303
2020-11-15 21:42:44.059,1.696302,1.732678,1.741178,1.735678
2020-11-15 21:42:44.076,1.697552,1.728303,1.741553,1.735553
2020-11-15 21:42:44.093,1.697052,1.729678,1.739053,1.735553
2020-11-15 21:42:44.111,1.699052,1.730053,1.733428,1.735678
2020-11-15 21:42:44.128,1.699177,1.730928,1.736678,1.735428
2020-11-15 21:42:44.145,1.698677,1.734928,1.736803,1.734178
2020-11-15 21:42:44.162,1.698177,1.733178,1.742678,1.734553
2020-11-15 21:42:44.179,1.696052,1.732678,1.741303,1.736053
2020-11-15 21:42:44.196,1.697177,1.728678,1.741678,1.735553
2020-11-15 21:42:44.213,1.696552,1.730178,1.739178,1.735178
2020-11-15 21:42:44.230,1.698552,1.729803,1.732928,1.735428
2020-11-15 21:42:44.247,1.697927,1.731928,1.736053,1.735303
2020-11-15 21:42:44.264,1.698177,1.734553,1.738178,1.734553
2020-11-15 21:42:44.281,1.696552,1.733428,1.744928,1.735053
2020-11-15 21:42:44.298,1.697052,1.731553,1.740928,1.735303
2020-11-15 21:42:44.315,1.697177,1.727678,1.740928,1.735178
2020-11-15 21:42:44.332,1.697927,1.729678,1.735928,1.734928
2020-11-15 21:42:44.349,1.699302,1.729428,1.736178,1.734678
2020-11-15 21:42:44.366,1.698677,1.735053,1.736428,1.735303
2020-11-15 21:42:44.383,1.698177,1.733303,1.738303,1.734928
2020-11-15 21:42:44.400,1.696927,1.733303,1.744053,1.735303
2020-11-15 21:42:44.417,1.696677,1.730053,1.741053,1.736053
2020-11-15 21:42:44.434,1.697302,1.729303,1.739303,1.735428
2020-11-15 21:42:44.451,1.698927,1.730553,1.733428,1.735053
2020-11-15 21:42:44.468,1.697677,1.730553,1.737053,1.735053
2020-11-15 21:42:44.484,1.699052,1.734928,1.737053,1.734178
2020-11-15 21:42:44.501,1.698177,1.732803,1.743178,1.733678
2020-11-15 21:42:44.518,1.696427,1.732803,1.741553,1.735928
2020-11-15 21:42:44.535,1.697427,1.728178,1.741678,1.735553
2020-11-15 21:42:44.552,1.697052,1.729928,1.738803,1.736053
2020-11-15 21:42:44.569,1.698427,1.730178,1.733553,1.734678
2020-11-15 21:42:44.587,1.698052,1.730678,1.736178,1.735053
2020-11-15 21:42:44.605,1.697927,1.735928,1.737553,1.735053
2020-11-15 21:42:44.621,1.697927,1.733178,1.743553,1.734928
2020-11-15 21:42:44.639,1.696927,1.733303,1.742178,1.735428
2020-11-15 21:42:44.656,1.697927,1.729428,1.742053,1.735678
2020-11-15 21:42:44.673,1.697302,1.729803,1.738678,1.735428
2020-11-15 21:42:44.689,1.698802,1.729553,1.734303,1.735428
2020-11-15 21:42:44.706,1.698677,1.733678,1.736803,1.734303
2020-11-15 21:42:44.723,1.698552,1.733428,1.737428,1.734928
2020-11-15 21:42:44.740,1.697052,1.733053,1.742678,1.735053
2020-11-15 21:42:44.757,1.696552,1.732428,1.741428,1.735803
2020-11-15 21:42:44.774,1.696927,1.728303,1.740553,1.735178
2020-11-15 21:42:44.791,1.696677,1.730303,1.735053,1.735803
2020-11-15 21:42:44.808,1.698802,1.729803,1.736178,1.734928
2020-11-15 21:42:44.825,1.698302,1.734428,1.736928,1.734803
2020-11-15 21:42:44.842,1.698427,1.734053,1.739553,1.734428
2020-11-15 21:42:44.859,1.697177,1.733428,1.743428,1.734928
2020-11-15 21:42:44.876,1.697052,1.731803,1.741678,1.736553
2020-11-15 21:42:44.893,1.696552,1.730428,1.740428,1.735428
2020-11-15 21:42:44.910,1.698552,1.729678,1.733803,1.736303
2020-11-15 21:42:44.927,1.698927,1.731303,1.736678,1.734678
2020-11-15 21:42:44.944,1.698302,1.736303,1.736178,1.735053
2020-11-15 21:42:44.961,1.697552,1.732928,1.740303,1.734928
2020-11-15 21:42:44.978,1.696302,1.733428,1.741428,1.735928
2020-11-15 21:42:44.995,1.697677,1.729678,1.741803,1.736303
2020-11-15 21:42:45.013,1.697427,1.729678,1.740178,1.735803
2020-11-15 21:42:45.030,1.697927,1.729928,1.733553,1.735803
2020-11-15 21:42:45.047,1.698302,1.731303,1.737053,1.734928
2020-11-15 21:42:45.064,1.698427,1.735428,1.738053,1.734928
2020-11-15 21:42:45.081,1.697677,1.732928,1.743928,1.734928
2020-11-15 21:42:45.098,1.697427,1.732553,1.741803,1.735303
2020-11-15 21:42:45.115,1.697177,1.728803,1.741553,1.736053
2020-11-15 21:42:45.132,1.698177,1.729428,1.738053,1.735928
2020-11-15 21:42:45.149,1.699177,1.729928,1.736553,1.735553
2020-11-15 21:42:45.166,1.698677,1.734178,1.736928,1.735178
2020-11-15 21:42:45.183,1.697802,1.733803,1.737803,1.735178
2020-11-15 21:42:45.199,1.696677,1.733678,1.743553,1.735178
2020-11-15 21:42:45.216,1.696677,1.731678,1.741803,1.736178
2020-11-15 21:42:45.233,1.697052,1.727928,1.740678,1.735928
2020-11-15 21:42:45.250,1.698302,1.729928,1.733678,1.735678
2020-11-15 21:42:45.267,1.698802,1.730178,1.736053,1.735303
2020-11-15 21:42:45.284,1.698677,1.733678,1.736553,1.733803
2020-11-15 21:42:45.301,1.698677,1.732803,1.741303,1.734928
2020-11-15 21:42:45.318,1.696677,1.733303,1.742178,1.735553
2020-11-15 21:42:45.335,1.697177,1.729428,1.741553,1.735678
2020-11-15 21:42:45.352,1.697052,1.730178,1.740178,1.735678
2020-11-15 21:42:45.369,1.698552,1.730178,1.733053,1.735553
2020-11-15 21:42:45.386,1.697802,1.731678,1.735803,1.734803
2020-11-15 21:42:45.403,1.697927,1.734803,1.736803,1.734803
2020-11-15 21:42:45.422,1.698552,1.734053,1.742303,1.735053
2020-11-15 21:42:45.439,1.696177,1.733428,1.741428,1.734803
2020-11-15 21:42:45.456,1.697177,1.730303,1.741553,1.736178
2020-11-15 21:42:45.473,1.697427,1.728803,1.740053,1.735428
2020-11-15 21:42:45.490,1.698677,1.729678,1.733428,1.736053
2020-11-15 21:42:45.506,1.698052,1.732678,1.736678,1.735053
2020-11-15 21:42:45.523,1.698302,1.735303,1.736928,1.735178
2020-11-15 21:42:45.540,1.697677,1.733303,1.742303,1.734553
2020-11-15 21:42:45.557,1.696177,1.733053,1.741303,1.736303
2020-11-15 21:42:45.574,1.696677,1.728803,1.740678,1.735553
2020-11-15 21:42:45.591,1.697052,1.729803,1.735928,1.735803
2020-11-15 21:42:45.608,1.698802,1.729678,1.737178,1.734928
2020-11-15 21:42:45.625,1.698177,1.732178,1.736303,1.734053
2020-11-15 21:42:45.642,1.698302,1.734428,1.738428,1.734428
2020-11-15 21:42:45.659,1.697052,1.732678,1.744928,1.734303
2020-11-15 21:42:45.676,1.697052,1.730803,1.741428,1.735678
2020-11-15 21:42:45.693,1.697427,1.729053,1.741178,1.735928
2020-11-15 21:42:45.710,1.697927,1.730053,1.735053,1.735803
2020-11-15 21:42:45.727,1.699052,1.731428,1.736428,1.735553
2020-11-15 21:42:45.744,1.697927,1.735303,1.736303,1.734803
2020-11-15 21:42:45.761,1.697927,1.732928,1.737053,1.735678
2020-11-15 21:42:45.778,1.696677,1.733178,1.741928,1.735428
2020-11-15 21:42:45.795,1.697552,1.730428,1.741803,1.735678
2020-11-15 21:42:45.812,1.697802,1.728678,1.739803,1.735303
2020-11-15 21:42:45.829,1.698677,1.729428,1.733803,1.734803
2020-11-15 21:42:45.846,1.698302,1.730428,1.736678,1.734928
2020-11-15 21:42:45.863,1.699052,1.735178,1.736803,1.735428
2020-11-15 21:42:45.880,1.698552,1.734053,1.742678,1.735053
2020-11-15 21:42:45.897,1.696677,1.732303,1.741303,1.735678
2020-11-15 21:42:45.914,1.698177,1.727428,1.741303,1.736428
2020-11-15 21:42:45.931,1.697177,1.730053,1.738803,1.734803
2020-11-15 21:42:45.948,1.698302,1.730303,1.736303,1.735553
2020-11-15 21:42:45.965,1.698677,1.732678,1.736303,1.735053
2020-11-15 21:42:45.982,1.698927,1.734053,1.738803,1.735178
2020-11-15 21:42:45.999,1.696552,1.733553,1.744678,1.735178
2020-11-15 21:42:46.016,1.697552,1.732678,1.741178,1.734803
2020-11-15 21:42:46.033,1.696677,1.726678,1.740678,1.735053
2020-11-15 21:42:46.050,1.697677,1.729178,1.735178,1.735428
2020-11-15 21:42:46.067,1.699177,1.730678,1.736178,1.735303
2020-11-15 21:42:46.084,1.697802,1.734928,1.735803,1.734428
2020-11-15 21:42:46.101,1.698302,1.733053,1.739178,1.735178
2020-11-15 21:42:46.118,1.696927,1.733803,1.743428,1.735553
2020-11-15 21:42:46.135,1.697177,1.730303,1.740678,1.735803
2020-11-15 21:42:46.152,1.696677,1.729803,1.739678,1.735178
2020-11-15 21:42:46.169,1.698552,1.729428,1.733928,1.735553
2020-11-15 21:42:46.186,1.698302,1.730803,1.736553,1.734678
2020-11-15 21:42:46.203,1.698677,1.735053,1.737178,1.734553
2020-11-15 21:42:46.220,1.697677,1.732803,1.743053,1.733928
2020-11-15 21:42:46.238,1.696677,1.733053,1.742928,1.734053
2020-11-15 21:42:46.255,1.697052,1.731553,1.741303,1.735178
2020-11-15 21:42:46.272,1.696677,1.729178,1.740053,1.734803
2020-11-15 21:42:46.289,1.697552,1.730303,1.734678,1.736053
2020-11-15 21:42:46.306,1.698927,1.731803,1.736303,1.735178
2020-11-15 21:42:46.323,1.698302,1.735553,1.734928,1.734803
2020-11-15 21:42:46.340,1.697427,1.732928,1.739428,1.735178
2020-11-15 21:42:46.357,1.696427,1.732678,1.741428,1.735553
2020-11-15 21:42:46.374,1.697802,1.729678,1.741928,1.735928
2020-11-15 21:42:46.391,1.697302,1.729678,1.737178,1.735428
2020-11-15 21:42:46.408,1.699052,1.730303,1.735303,1.734803
2020-11-15 21:42:46.425,1.699052,1.730553,1.736928,1.734303
2020-11-15 21:42:46.442,1.698677,1.734053,1.737678,1.734678
2020-11-15 21:42:46.459,1.697927,1.733428,1.744303,1.734553
2020-11-15 21:42:46.476,1.697052,1.732053,1.741428,1.735428
2020-11-15 21:42:46.493,1.697052,1.727928,1.741428,1.735803
2020-11-15 21:42:46.510,1.697177,1.730303,1.736678,1.736053
2020-11-15 21:42:46.527,1.699052,1.731053,1.736678,1.735553
2020-11-15 21:42:46.544,1.698677,1.734803,1.736553,1.734803
2020-11-15 21:42:46.561,1.698302,1.732928,1.740678,1.734553
2020-11-15 21:42:46.578,1.697177,1.733303,1.742553,1.735053
2020-11-15 21:42:46.595,1.697802,1.731303,1.741553,1.735803
2020-11-15 21:42:46.612,1.697177,1.727928,1.740303,1.735303
2020-11-15 21:42:46.629,1.698302,1.729678,1.733803,1.735928
2020-11-15 21:42:46.646,1.698677,1.731303,1.736178,1.735053
2020-11-15 21:42:46.663,1.698177,1.735803,1.736303,1.735803
2020-11-15 21:42:46.680,1.698177,1.733803,1.740428,1.735428
2020-11-15 21:42:46.697,1.696552,1.733053,1.740803,1.735928
2020-11-15 21:42:46.714,1.697427,1.729178,1.741178,1.735803
2020-11-15 21:42:46.731,1.698052,1.729803,1.737803,1.735803
2020-11-15 21:42:46.748,1.699177,1.729803,1.735928,1.735428
2020-11-15 21:42:46.765,1.698552,1.731178,1.736928,1.734178
2020-11-15 21:42:46.782,1.698177,1.734428,1.737428,1.734928
2020-11-15 21:42:46.799,1.696552,1.733803,1.744803,1.735678
2020-11-15 21:42:46.816,1.697427,1.731928,1.741178,1.736053
2020-11-15 21:42:46.833,1.696927,1.728303,1.741428,1.736428
2020-11-15 21:42:46.850,1.697802,1.730303,1.735803,1.736428
2020-11-15 21:42:46.867,1.699427,1.730928,1.736428,1.735428
2020-11-15 21:42:46.884,1.697927,1.734928,1.736678,1.734303
2020-11-15 21:42:46.901,1.697802,1.733428,1.741553,1.735553
2020-11-15 21:42:46.918,1.696427,1.733303,1.741678,1.735053
2020-11-15 21:42:46.934,1.697302,1.730928,1.741303,1.735553
2020-11-15 21:42:46.951,1.697302,1.728303,1.740303,1.735928
2020-11-15 21:42:46.968,1.698552,1.729928,1.733178,1.736178
2020-11-15 21:42:46.985,1.698552,1.732303,1.736303,1.734928
2020-11-15 21:42:47.002,1.698052,1.735053,1.736178,1.734553
2020-11-15 21:42:47.019,1.697802,1.733678,1.742553,1.734928
2020-11-15 21:42:47.036,1.696052,1.732928,1.741553,1.736053
2020-11-15 21:42:47.053,1.698177,1.730553,1.741428,1.735803
2020-11-15 21:42:47.072,1.697427,1.728678,1.739803,1.734803
2020-11-15 21:42:47.089,1.698427,1.729803,1.733178,1.735553
2020-11-15 21:42:47.105,1.698677,1.730678,1.736553,1.735053
2020-11-15 21:42:47.123,1.698927,1.734928,1.736428,1.734678
2020-11-15 21:42:47.140,1.698052,1.733928,1.742428,1.735178
2020-11-15 21:42:47.156,1.696677,1.732428,1.741678,1.735303
2020-11-15 21:42:47.173,1.696802,1.728553,1.740803,1.735928
2020-11-15 21:42:47.190,1.697052,1.729553,1.739178,1.735678
2020-11-15 21:42:47.207,1.698302,1.730178,1.736678,1.735928
2020-11-15 21:42:47.224,1.698552,1.731803,1.737053,1.734678
2020-11-15 21:42:47.241,1.698052,1.733553,1.738428,1.734303
2020-11-15 21:42:47.258,1.696927,1.733178,1.744803,1.734678
2020-11-15 21:42:47.275,1.697927,1.732678,1.742178,1.735303
2020-11-15 21:42:47.292,1.697427,1.727803,1.741553,1.735553
2020-11-15 21:42:47.310,1.697677,1.729928,1.735178,1.735678
2020-11-15 21:42:47.327,1.699177,1.729678,1.736428,1.734678
2020-11-15 21:42:47.344,1.698927,1.733428,1.737178,1.735053
2020-11-15 21:42:47.361,1.698302,1.733553,1.739053,1.735303
2020-11-15 21:42:47.378,1.696677,1.733928,1.744553,1.735303
2020-11-15 21:42:47.395,1.697177,1.730803,1.741303,1.736178
2020-11-15 21:42:47.412,1.696927,1.729178,1.740303,1.735803
2020-11-15 21:42:47.429,1.697427,1.730178,1.734928,1.735803
2020-11-15 21:42:47.445,1.698677,1.730928,1.736428,1.734553
2020-11-15 21:42:47.462,1.698677,1.735053,1.736928,1.734803
2020-11-15 21:42:47.479,1.698177,1.733053,1.743553,1.735053
2020-11-15 21:42:47.496,1.696677,1.733428,1.741928,1.734928
2020-11-15 21:42:47.513,1.697177,1.730428,1.741053,1.735303
2020-11-15 21:42:47.530,1.697177,1.729553,1.739053,1.735678
2020-11-15 21:42:47.547,1.698552,1.730053,1.734053,1.736053
2020-11-15 21:42:47.564,1.698802,1.733178,1.735678,1.734928
2020-11-15 21:42:47.581,1.698677,1.733553,1.736553,1.734803
2020-11-15 21:42:47.598,1.697552,1.733928,1.742178,1.734928
2020-11-15 21:42:47.615,1.695927,1.732178,1.741303,1.735678
2020-11-15 21:42:47.632,1.697052,1.727553,1.740803,1.735553
2020-11-15 21:42:47.649,1.697802,1.729803,1.735178,1.735303
2020-11-15 21:42:47.666,1.699052,1.730053,1.736428,1.735178
2020-11-15 21:42:47.683,1.698302,1.733178,1.736428,1.734053
2020-11-15 21:42:47.700,1.698552,1.732803,1.739678,1.735178
2020-11-15 21:42:47.717,1.696552,1.733053,1.743928,1.735428
2020-11-15 21:42:47.734,1.697552,1.730428,1.741553,1.735928
2020-11-15 21:42:47.751,1.696927,1.730053,1.740553,1.735303
2020-11-15 21:42:47.768,1.698052,1.730303,1.733928,1.735303
2020-11-15 21:42:47.785,1.698927,1.731303,1.735678,1.735178
2020-11-15 21:42:47.802,1.698802,1.735928,1.737553,1.733928
2020-11-15 21:42:47.819,1.697427,1.733678,1.743053,1.734678
2020-11-15 21:42:47.836,1.696427,1.733178,1.741928,1.734928
2020-11-15 21:42:47.853,1.697677,1.729553,1.741803,1.735928
2020-11-15 21:42:47.870,1.697552,1.729678,1.738803,1.735053
2020-11-15 21:42:47.888,1.698802,1.729553,1.734428,1.735303
2020-11-15 21:42:47.905,1.698927,1.729928,1.736178,1.735303
2020-11-15 21:42:47.922,1.698802,1.735928,1.736428,1.734928
2020-11-15 21:42:47.939,1.697677,1.733178,1.740178,1.735178
2020-11-15 21:42:47.956,1.696177,1.732928,1.740928,1.735428
2020-11-15 21:42:47.973,1.696802,1.729178,1.740803,1.736428
2020-11-15 21:42:47.990,1.696552,1.730178,1.737928,1.735803
2020-11-15 21:42:48.007,1.698802,1.730303,1.735678,1.735928
2020-11-15 21:42:48.024,1.698552,1.731553,1.736553,1.734553
2020-11-15 21:42:48.041,1.698802,1.735428,1.738178,1.734553
2020-11-15 21:42:48.058,1.697177,1.732678,1.744053,1.734803
2020-11-15 21:42:48.075,1.697302,1.732803,1.741053,1.735803
2020-11-15 21:42:48.092,1.697552,1.727553,1.741678,1.735428
2020-11-15 21:42:48.109,1.697177,1.730678,1.736678,1.735428
2020-11-15 21:42:48.126,1.698927,1.730178,1.735803,1.735678
2020-11-15 21:42:48.143,1.698427,1.735178,1.736428,1.734928
2020-11-15 21:42:48.160,1.697927,1.733928,1.737553,1.734428
2020-11-15 21:42:48.177,1.696552,1.733303,1.743803,1.734678
2020-11-15 21:42:48.194,1.696927,1.731803,1.741303,1.735053
2020-11-15 21:42:48.211,1.697302,1.727803,1.740428,1.735678
2020-11-15 21:42:48.228,1.698177,1.730053,1.733678,1.734928
2020-11-15 21:42:48.245,1.698302,1.730053,1.736803,1.734303
2020-11-15 21:42:48.262,1.697677,1.735428,1.736928,1.734553
2020-11-15 21:42:48.279,1.697927,1.733428,1.741553,1.734803
2020-11-15 21:42:48.296,1.696552,1.733303,1.741303,1.735053
2020-11-15 21:42:48.313,1.696552,1.728553,1.740428,1.735553
2020-11-15 21:42:48.330,1.696552,1.729678,1.739553,1.735928
2020-11-15 21:42:48.347,1.698427,1.729553,1.736303,1.734803
2020-11-15 21:42:48.364,1.698302,1.731678,1.736553,1.734803
2020-11-15 21:42:48.381,1.698927,1.734553,1.738428,1.734928
2020-11-15 21:42:48.398,1.697552,1.732803,1.744303,1.734803
2020-11-15 21:42:48.415,1.697302,1.733053,1.741303,1.735053
2020-11-15 21:42:48.432,1.696927,1.727803,1.741303,1.735803
2020-11-15 21:42:48.449,1.697927,1.730303,1.736678,1.736053
2020-11-15 21:42:48.466,1.699552,1.730678,1.736303,1.734803
2020-11-15 21:42:48.483,1.697802,1.735053,1.736428,1.735053
2020-11-15 21:42:48.500,1.698177,1.734053,1.737553,1.734928
2020-11-15 21:42:48.517,1.696802,1.733803,1.741678,1.735303
2020-11-15 21:42:48.534,1.697177,1.731803,1.741928,1.736053
2020-11-15 21:42:48.551,1.697552,1.728178,1.740428,1.735303
2020-11-15 21:42:48.568,1.698552,1.729928,1.733803,1.734928
2020-11-15 21:42:48.585,1.698677,1.730178,1.736053,1.734678
2020-11-15 21:42:48.602,1.698927,1.735053,1.737303,1.734553
