Datetime,chan0,chan1,chan2,chan3
2020-11-15 23:12:15.298,1.570798,1.678926,1.699302,1.677426
2020-11-15 23:12:15.315,1.572423,1.682176,1.692052,1.675926
2020-11-15 23:12:15.332,1.575548,1.683301,1.689677,1.674926
2020-11-15 23:12:15.349,1.573548,1.687551,1.692677,1.673676
2020-11-15 23:12:15.366,1.573673,1.694927,1.695177,1.673926
2020-11-15 23:12:15.383,1.571173,1.689552,1.705302,1.675051
2020-11-15 23:12:15.400,1.570673,1.685551,1.700052,1.676676
2020-11-15 23:12:15.417,1.570173,1.676801,1.698552,1.676551
2020-11-15 23:12:15.434,1.571923,1.682301,1.695177,1.675926
2020-11-15 23:12:15.453,1.574798,1.683801,1.685426,1.675676
2020-11-15 23:12:15.470,1.573673,1.689302,1.692052,1.673926
2020-11-15 23:12:15.487,1.573423,1.694052,1.693052,1.674676
2020-11-15 23:12:15.504,1.570923,1.689927,1.702427,1.674926
2020-11-15 23:12:15.521,1.571298,1.687426,1.699552,1.675301
2020-11-15 23:12:15.538,1.571048,1.678551,1.698177,1.676926
2020-11-15 23:12:15.555,1.572923,1.682676,1.689302,1.675926
2020-11-15 23:12:15.572,1.576423,1.682926,1.691677,1.674801
2020-11-15 23:12:15.589,1.573173,1.689802,1.692927,1.673301
2020-11-15 23:12:15.606,1.573048,1.692427,1.696802,1.673801
2020-11-15 23:12:15.623,1.571173,1.689427,1.705927,1.675051
2020-11-15 23:12:15.640,1.570048,1.682676,1.699052,1.676301
2020-11-15 23:12:15.656,1.570673,1.679801,1.697427,1.676426
2020-11-15 23:12:15.673,1.571923,1.683051,1.687551,1.675926
2020-11-15 23:12:15.690,1.576673,1.686051,1.690802,1.674676
2020-11-15 23:12:15.707,1.573423,1.696052,1.692052,1.674301
2020-11-15 23:12:15.724,1.572048,1.690427,1.703552,1.674551
2020-11-15 23:12:15.741,1.569923,1.689552,1.700427,1.675426
2020-11-15 23:12:15.758,1.570798,1.681551,1.698427,1.676801
2020-11-15 23:12:15.775,1.570798,1.680551,1.693802,1.675926
2020-11-15 23:12:15.792,1.576048,1.682176,1.686051,1.675301
2020-11-15 23:12:15.809,1.573423,1.686176,1.693052,1.674176
2020-11-15 23:12:15.826,1.572673,1.691927,1.694177,1.674676
2020-11-15 23:12:15.843,1.572173,1.689677,1.703552,1.675051
2020-11-15 23:12:15.860,1.569673,1.686426,1.700052,1.675926
2020-11-15 23:12:15.877,1.570298,1.676801,1.698677,1.676551
2020-11-15 23:12:15.894,1.570673,1.682176,1.692177,1.675551
2020-11-15 23:12:15.911,1.575548,1.683301,1.687426,1.675051
2020-11-15 23:12:15.928,1.573048,1.691677,1.693302,1.673676
2020-11-15 23:12:15.945,1.572173,1.691052,1.698052,1.674051
2020-11-15 23:12:15.962,1.570173,1.689677,1.704427,1.674051
2020-11-15 23:12:15.979,1.570423,1.685926,1.699052,1.676176
2020-11-15 23:12:15.996,1.570798,1.676176,1.696302,1.675676
2020-11-15 23:12:16.013,1.573548,1.682676,1.687551,1.675426
2020-11-15 23:12:16.030,1.576173,1.683551,1.691552,1.673926
2020-11-15 23:12:16.047,1.573298,1.696052,1.692802,1.674301
2020-11-15 23:12:16.064,1.572298,1.690052,1.699052,1.674801
2020-11-15 23:12:16.081,1.569798,1.689177,1.702802,1.675426
2020-11-15 23:12:16.098,1.570548,1.679926,1.698802,1.676801
2020-11-15 23:12:16.115,1.570798,1.681551,1.695302,1.675426
2020-11-15 23:12:16.132,1.573173,1.683051,1.686426,1.675676
2020-11-15 23:12:16.149,1.574048,1.687176,1.692802,1.674176
2020-11-15 23:12:16.166,1.573298,1.696552,1.694927,1.674051
2020-11-15 23:12:16.183,1.571298,1.690177,1.704427,1.674926
2020-11-15 23:12:16.200,1.570298,1.688052,1.699552,1.675551
2020-11-15 23:12:16.217,1.570298,1.678551,1.698302,1.676551
2020-11-15 23:12:16.234,1.572923,1.681426,1.691177,1.675676
2020-11-15 23:12:16.252,1.576548,1.683301,1.689802,1.674926
2020-11-15 23:12:16.270,1.574298,1.685676,1.691802,1.674551
2020-11-15 23:12:16.287,1.573048,1.694677,1.693552,1.673926
2020-11-15 23:12:16.304,1.572173,1.690677,1.701427,1.674176
2020-11-15 23:12:16.321,1.569548,1.689302,1.700552,1.674676
2020-11-15 23:12:16.338,1.570673,1.681801,1.698552,1.677176
2020-11-15 23:12:16.355,1.571798,1.681551,1.695427,1.675801
2020-11-15 23:12:16.372,1.574673,1.682801,1.685176,1.675676
2020-11-15 23:12:16.389,1.573423,1.689427,1.691927,1.674301
2020-11-15 23:12:16.406,1.573173,1.693927,1.693427,1.674551
2020-11-15 23:12:16.423,1.571548,1.690052,1.702427,1.674926
2020-11-15 23:12:16.440,1.569673,1.687051,1.699927,1.676176
2020-11-15 23:12:16.457,1.570298,1.678176,1.698302,1.676176
2020-11-15 23:12:16.474,1.571048,1.682426,1.693552,1.675676
2020-11-15 23:12:16.491,1.575048,1.684051,1.691677,1.675301
2020-11-15 23:12:16.508,1.573798,1.690302,1.692802,1.673801
2020-11-15 23:12:16.525,1.572673,1.692177,1.697177,1.674676
2020-11-15 23:12:16.542,1.570298,1.689552,1.705427,1.675051
2020-11-15 23:12:16.559,1.570798,1.686051,1.699552,1.675926
2020-11-15 23:12:16.576,1.570673,1.676551,1.697427,1.676551
2020-11-15 23:12:16.593,1.573048,1.682051,1.687802,1.674926
2020-11-15 23:12:16.610,1.575923,1.686426,1.691427,1.674676
2020-11-15 23:12:16.627,1.573673,1.696177,1.693052,1.673926
2020-11-15 23:12:16.644,1.572048,1.690427,1.697677,1.674926
2020-11-15 23:12:16.661,1.569548,1.689177,1.704052,1.674801
2020-11-15 23:12:16.678,1.569798,1.680676,1.698802,1.677301
2020-11-15 23:12:16.695,1.570423,1.680801,1.695677,1.676426
2020-11-15 23:12:16.712,1.572548,1.683051,1.686301,1.675676
2020-11-15 23:12:16.729,1.573798,1.686551,1.692927,1.673551
2020-11-15 23:12:16.746,1.572673,1.696427,1.694677,1.674301
2020-11-15 23:12:16.763,1.571423,1.690427,1.703927,1.673926
2020-11-15 23:12:16.780,1.568798,1.688677,1.699927,1.674926
2020-11-15 23:12:16.797,1.571423,1.679676,1.698677,1.676676
2020-11-15 23:12:16.814,1.571298,1.681176,1.693052,1.676051
2020-11-15 23:12:16.831,1.575798,1.683301,1.688677,1.675301
2020-11-15 23:12:16.848,1.574423,1.692802,1.692177,1.674051
2020-11-15 23:12:16.865,1.572673,1.690927,1.694927,1.674551
2020-11-15 23:12:16.882,1.570923,1.689802,1.704427,1.674676
2020-11-15 23:12:16.899,1.569548,1.683926,1.699427,1.677176
2020-11-15 23:12:16.916,1.570423,1.675801,1.698552,1.676301
2020-11-15 23:12:16.933,1.572423,1.682551,1.691677,1.676051
2020-11-15 23:12:16.950,1.575923,1.684676,1.688302,1.674801
2020-11-15 23:12:16.967,1.573673,1.693302,1.691927,1.673426
2020-11-15 23:12:16.984,1.573048,1.690302,1.695552,1.674551
2020-11-15 23:12:17.001,1.570173,1.690052,1.703052,1.674801
2020-11-15 23:12:17.018,1.570798,1.684926,1.698927,1.676051
2020-11-15 23:12:17.035,1.569923,1.676676,1.695552,1.675426
2020-11-15 23:12:17.052,1.574048,1.682801,1.687051,1.675426
2020-11-15 23:12:17.069,1.574423,1.684801,1.691802,1.674426
2020-11-15 23:12:17.086,1.573048,1.687802,1.692302,1.674051
2020-11-15 23:12:17.105,1.573048,1.693802,1.696052,1.673426
2020-11-15 23:12:17.122,1.570798,1.689552,1.705802,1.673301
2020-11-15 23:12:17.139,1.571298,1.683926,1.699552,1.677051
2020-11-15 23:12:17.156,1.570673,1.679176,1.697802,1.675801
2020-11-15 23:12:17.173,1.572548,1.683051,1.688302,1.676176
2020-11-15 23:12:17.190,1.576673,1.685301,1.691552,1.675176
2020-11-15 23:12:17.207,1.573423,1.694927,1.691677,1.673176
2020-11-15 23:12:17.224,1.572173,1.690052,1.695927,1.674801
2020-11-15 23:12:17.241,1.569298,1.689052,1.700177,1.675801
2020-11-15 23:12:17.258,1.570798,1.682801,1.698677,1.677301
2020-11-15 23:12:17.275,1.571173,1.678551,1.694802,1.675176
2020-11-15 23:12:17.292,1.574923,1.682676,1.685426,1.676176
2020-11-15 23:12:17.309,1.573923,1.685676,1.692427,1.673926
2020-11-15 23:12:17.326,1.573048,1.695302,1.693802,1.673926
2020-11-15 23:12:17.343,1.572298,1.689927,1.703427,1.674551
2020-11-15 23:12:17.360,1.569423,1.686926,1.699927,1.676301
2020-11-15 23:12:17.376,1.570298,1.677926,1.698427,1.676176
2020-11-15 23:12:17.393,1.571298,1.682051,1.693677,1.675551
2020-11-15 23:12:17.411,1.574673,1.683551,1.686176,1.674926
2020-11-15 23:12:17.428,1.573423,1.690427,1.691802,1.673676
2020-11-15 23:12:17.444,1.573298,1.692552,1.693677,1.673801
2020-11-15 23:12:17.461,1.571423,1.689552,1.705677,1.674551
2020-11-15 23:12:17.479,1.571173,1.686176,1.698802,1.675676
2020-11-15 23:12:17.496,1.571048,1.676926,1.697052,1.676051
2020-11-15 23:12:17.513,1.572798,1.682176,1.688052,1.675301
2020-11-15 23:12:17.530,1.576673,1.683176,1.691177,1.675051
2020-11-15 23:12:17.546,1.573673,1.691302,1.692802,1.673176
2020-11-15 23:12:17.563,1.571673,1.690802,1.698177,1.674676
2020-11-15 23:12:17.580,1.570048,1.689302,1.704552,1.675676
2020-11-15 23:12:17.597,1.570298,1.681051,1.699177,1.676801
2020-11-15 23:12:17.615,1.570923,1.681551,1.696302,1.676426
2020-11-15 23:12:17.631,1.572548,1.682676,1.687677,1.676051
2020-11-15 23:12:17.648,1.575423,1.687051,1.690677,1.674176
2020-11-15 23:12:17.666,1.573173,1.695927,1.692927,1.674551
2020-11-15 23:12:17.683,1.571923,1.690427,1.704177,1.674801
2020-11-15 23:12:17.699,1.568798,1.687927,1.700677,1.675301
2020-11-15 23:12:17.717,1.570923,1.680551,1.698802,1.677051
2020-11-15 23:12:17.734,1.571798,1.681551,1.693052,1.675676
2020-11-15 23:12:17.750,1.575798,1.682176,1.688177,1.675551
2020-11-15 23:12:17.767,1.574423,1.686926,1.691927,1.673551
2020-11-15 23:12:17.784,1.572673,1.695552,1.695427,1.674676
2020-11-15 23:12:17.801,1.571048,1.689302,1.704552,1.674801
2020-11-15 23:12:17.818,1.570548,1.685801,1.699927,1.676426
2020-11-15 23:12:17.835,1.570673,1.676926,1.697552,1.676051
2020-11-15 23:12:17.852,1.571798,1.682176,1.691802,1.676176
2020-11-15 23:12:17.869,1.576298,1.684426,1.689052,1.675051
2020-11-15 23:12:17.886,1.572673,1.693177,1.693177,1.673926
2020-11-15 23:12:17.903,1.572298,1.690927,1.699802,1.673176
2020-11-15 23:12:17.922,1.570548,1.690052,1.704802,1.674301
2020-11-15 23:12:17.939,1.570423,1.687551,1.699302,1.675051
2020-11-15 23:12:17.956,1.571423,1.678926,1.698677,1.676676
2020-11-15 23:12:17.973,1.572048,1.682051,1.690302,1.675426
2020-11-15 23:12:17.990,1.576423,1.682926,1.691302,1.675051
2020-11-15 23:12:18.007,1.574298,1.688552,1.692802,1.674176
2020-11-15 23:12:18.024,1.573923,1.690552,1.696177,1.674551
2020-11-15 23:12:18.041,1.570298,1.689927,1.705052,1.674551
2020-11-15 23:12:18.058,1.570673,1.683926,1.699052,1.676801
2020-11-15 23:12:18.075,1.570173,1.678176,1.696927,1.675676
2020-11-15 23:12:18.091,1.572048,1.682426,1.688552,1.675926
2020-11-15 23:12:18.109,1.576798,1.685301,1.692302,1.674926
2020-11-15 23:12:18.126,1.573423,1.695177,1.693427,1.674426
2020-11-15 23:12:18.143,1.572798,1.690677,1.702302,1.674426
2020-11-15 23:12:18.159,1.569298,1.689052,1.700302,1.674676
2020-11-15 23:12:18.176,1.570798,1.682676,1.698552,1.676801
2020-11-15 23:12:18.193,1.571548,1.678801,1.695177,1.675301
2020-11-15 23:12:18.210,1.574923,1.682426,1.685926,1.675301
2020-11-15 23:12:18.228,1.573798,1.689427,1.692177,1.673926
2020-11-15 23:12:18.244,1.573548,1.693677,1.694177,1.674676
2020-11-15 23:12:18.261,1.572173,1.689927,1.703427,1.674676
2020-11-15 23:12:18.278,1.569298,1.687301,1.699427,1.675801
2020-11-15 23:12:18.295,1.570673,1.677926,1.698802,1.676176
2020-11-15 23:12:18.312,1.571298,1.681801,1.693177,1.675676
2020-11-15 23:12:18.329,1.574923,1.683676,1.691302,1.675426
2020-11-15 23:12:18.346,1.573298,1.690052,1.691927,1.673676
2020-11-15 23:12:18.363,1.573173,1.692302,1.697677,1.674301
2020-11-15 23:12:18.380,1.570298,1.689302,1.706052,1.674301
2020-11-15 23:12:18.397,1.571048,1.685926,1.698927,1.676176
2020-11-15 23:12:18.414,1.570673,1.676926,1.697052,1.675176
2020-11-15 23:12:18.431,1.572423,1.682051,1.687802,1.675676
2020-11-15 23:12:18.448,1.575923,1.685801,1.691302,1.674926
2020-11-15 23:12:18.465,1.573048,1.695677,1.692427,1.673926
2020-11-15 23:12:18.482,1.572548,1.690927,1.697677,1.675176
2020-11-15 23:12:18.499,1.569548,1.689552,1.703802,1.674676
2020-11-15 23:12:18.516,1.570423,1.681301,1.697927,1.676926
2020-11-15 23:12:18.533,1.570798,1.681176,1.694302,1.676051
2020-11-15 23:12:18.551,1.573173,1.683176,1.686801,1.676176
2020-11-15 23:12:18.568,1.575423,1.686301,1.690552,1.674551
2020-11-15 23:12:18.585,1.573673,1.696177,1.692052,1.674551
2020-11-15 23:12:18.602,1.571423,1.689927,1.698677,1.674801
2020-11-15 23:12:18.619,1.568798,1.689302,1.699427,1.675676
2020-11-15 23:12:18.636,1.570673,1.679801,1.698927,1.677176
2020-11-15 23:12:18.653,1.571798,1.681801,1.693052,1.675301
2020-11-15 23:12:18.670,1.576048,1.682801,1.688427,1.675551
2020-11-15 23:12:18.687,1.573673,1.686926,1.692177,1.673301
2020-11-15 23:12:18.704,1.573048,1.696052,1.695427,1.674676
2020-11-15 23:12:18.721,1.571048,1.689302,1.704052,1.674926
2020-11-15 23:12:18.738,1.570423,1.688302,1.702177,1.675926
2020-11-15 23:12:18.756,1.570548,1.679301,1.699177,1.678051
2020-11-15 23:12:18.773,1.570173,1.681676,1.695302,1.675676
2020-11-15 23:12:18.790,1.574548,1.683426,1.685676,1.675676
2020-11-15 23:12:18.807,1.574048,1.688052,1.691802,1.674176
2020-11-15 23:12:18.824,1.573173,1.695927,1.696052,1.674551
2020-11-15 23:12:18.841,1.571173,1.690177,1.705427,1.674676
2020-11-15 23:12:18.858,1.570173,1.687176,1.699302,1.675301
2020-11-15 23:12:18.875,1.570923,1.678176,1.698802,1.676801
2020-11-15 23:12:18.892,1.572423,1.681176,1.690802,1.675551
2020-11-15 23:12:18.909,1.576548,1.682301,1.690927,1.674926
2020-11-15 23:12:18.926,1.573673,1.688427,1.692302,1.673926
2020-11-15 23:12:18.943,1.573548,1.691177,1.696802,1.674676
2020-11-15 23:12:18.960,1.570048,1.689427,1.705302,1.674676
2020-11-15 23:12:18.977,1.570423,1.684676,1.699177,1.677176
2020-11-15 23:12:18.994,1.571048,1.677551,1.697552,1.675801
2020-11-15 23:12:19.011,1.572298,1.683051,1.689177,1.676176
2020-11-15 23:12:19.028,1.575923,1.685676,1.692177,1.675176
2020-11-15 23:12:19.045,1.573423,1.694302,1.693677,1.673801
2020-11-15 23:12:19.062,1.572173,1.690302,1.702302,1.674301
2020-11-15 23:12:19.079,1.569048,1.688927,1.700177,1.674551
2020-11-15 23:12:19.096,1.570298,1.683051,1.698927,1.676551
2020-11-15 23:12:19.113,1.571173,1.682176,1.694677,1.675801
2020-11-15 23:12:19.130,1.575048,1.683301,1.686301,1.675301
2020-11-15 23:12:19.147,1.573673,1.689802,1.692052,1.673926
2020-11-15 23:12:19.164,1.572923,1.694802,1.693677,1.674676
2020-11-15 23:12:19.180,1.571423,1.690052,1.702677,1.675051
2020-11-15 23:12:19.198,1.569673,1.687176,1.699802,1.676051
2020-11-15 23:12:19.214,1.570298,1.678176,1.698052,1.676801
2020-11-15 23:12:19.231,1.571048,1.682551,1.689177,1.676051
2020-11-15 23:12:19.249,1.576423,1.683801,1.691302,1.675176
2020-11-15 23:12:19.265,1.573548,1.690677,1.693052,1.673551
2020-11-15 23:12:19.282,1.571923,1.692052,1.697427,1.674301
2020-11-15 23:12:19.299,1.569923,1.689427,1.706427,1.675426
2020-11-15 23:12:19.316,1.570423,1.682551,1.699552,1.677676
2020-11-15 23:12:19.333,1.571298,1.679801,1.696427,1.675551
2020-11-15 23:12:19.350,1.572548,1.683051,1.688052,1.675676
2020-11-15 23:12:19.367,1.575923,1.685801,1.691552,1.674551
2020-11-15 23:12:19.384,1.573798,1.695552,1.691927,1.674551
2020-11-15 23:12:19.401,1.571298,1.690177,1.697927,1.674426
2020-11-15 23:12:19.418,1.569423,1.689802,1.704302,1.675176
2020-11-15 23:12:19.435,1.570423,1.681301,1.698927,1.677301
2020-11-15 23:12:19.452,1.571548,1.681551,1.694427,1.676051
2020-11-15 23:12:19.469,1.575423,1.682801,1.686301,1.675426
2020-11-15 23:12:19.486,1.573673,1.686051,1.692677,1.673676
2020-11-15 23:12:19.503,1.573298,1.695802,1.694177,1.673926
2020-11-15 23:12:19.520,1.571548,1.689302,1.703927,1.675051
2020-11-15 23:12:19.537,1.569673,1.686551,1.700177,1.676426
2020-11-15 23:12:19.554,1.571173,1.677176,1.699052,1.677051
2020-11-15 23:12:19.573,1.570548,1.681551,1.696052,1.676176
2020-11-15 23:12:19.590,1.573423,1.683301,1.686926,1.675926
2020-11-15 23:12:19.607,1.574673,1.687551,1.691177,1.674676
2020-11-15 23:12:19.624,1.573173,1.696302,1.692302,1.674801
2020-11-15 23:12:19.641,1.571548,1.690427,1.699427,1.674926
2020-11-15 23:12:19.658,1.569423,1.688552,1.700677,1.675676
2020-11-15 23:12:19.675,1.571423,1.679051,1.698802,1.677551
2020-11-15 23:12:19.691,1.571673,1.681926,1.690927,1.675926
2020-11-15 23:12:19.709,1.576548,1.683176,1.689302,1.675426
2020-11-15 23:12:19.725,1.573798,1.687176,1.692427,1.673676
2020-11-15 23:12:19.743,1.572798,1.693927,1.695427,1.675051
2020-11-15 23:12:19.760,1.571173,1.690302,1.704677,1.674926
2020-11-15 23:12:19.776,1.570548,1.685301,1.700052,1.676926
2020-11-15 23:12:19.793,1.570673,1.676551,1.698552,1.676051
2020-11-15 23:12:19.810,1.572423,1.683176,1.689802,1.676176
2020-11-15 23:12:19.827,1.576173,1.685051,1.689302,1.675176
2020-11-15 23:12:19.844,1.573923,1.694927,1.692427,1.673676
2020-11-15 23:12:19.861,1.573048,1.691177,1.701302,1.674801
2020-11-15 23:12:19.878,1.569673,1.689552,1.701177,1.674926
2020-11-15 23:12:19.895,1.570298,1.683676,1.699177,1.676676
2020-11-15 23:12:19.912,1.570548,1.677301,1.695677,1.675551
2020-11-15 23:12:19.929,1.574673,1.682051,1.685926,1.675801
2020-11-15 23:12:19.946,1.573673,1.684926,1.691927,1.673801
2020-11-15 23:12:19.963,1.573798,1.695927,1.692927,1.674301
2020-11-15 23:12:19.980,1.571923,1.690052,1.701677,1.675051
2020-11-15 23:12:19.997,1.569298,1.687802,1.699177,1.675676
2020-11-15 23:12:20.014,1.570673,1.678426,1.698802,1.676801
2020-11-15 23:12:20.031,1.570548,1.682051,1.694177,1.676051
2020-11-15 23:12:20.048,1.574923,1.682926,1.685301,1.675551
2020-11-15 23:12:20.065,1.573548,1.689302,1.692677,1.673926
2020-11-15 23:12:20.082,1.573798,1.694177,1.696427,1.674176
2020-11-15 23:12:20.099,1.570923,1.690677,1.706052,1.674926
2020-11-15 23:12:20.116,1.570923,1.686426,1.699302,1.675051
2020-11-15 23:12:20.133,1.570673,1.677551,1.698052,1.676926
2020-11-15 23:12:20.150,1.572298,1.681551,1.689927,1.675801
2020-11-15 23:12:20.167,1.577173,1.685551,1.691802,1.674801
2020-11-15 23:12:20.184,1.573798,1.695302,1.692302,1.674676
2020-11-15 23:12:20.201,1.572798,1.690677,1.696427,1.674551
2020-11-15 23:12:20.218,1.569048,1.688927,1.706052,1.675301
2020-11-15 23:12:20.235,1.569923,1.683051,1.698552,1.676676
2020-11-15 23:12:20.252,1.570423,1.679426,1.696677,1.675801
2020-11-15 23:12:20.269,1.575423,1.682801,1.686426,1.675301
2020-11-15 23:12:20.286,1.573798,1.686426,1.692302,1.673926
2020-11-15 23:12:20.303,1.573298,1.695552,1.693677,1.673926
2020-11-15 23:12:20.320,1.571423,1.690552,1.702927,1.674051
2020-11-15 23:12:20.337,1.569423,1.689052,1.700302,1.674426
2020-11-15 23:12:20.354,1.570423,1.680926,1.698802,1.677051
2020-11-15 23:12:20.371,1.571298,1.682176,1.694552,1.675551
2020-11-15 23:12:20.388,1.575048,1.682176,1.687802,1.676676
2020-11-15 23:12:20.406,1.575548,1.686301,1.691177,1.674426
2020-11-15 23:12:20.423,1.573548,1.696302,1.692927,1.674676
2020-11-15 23:12:20.440,1.572173,1.690927,1.698427,1.674676
2020-11-15 23:12:20.457,1.569548,1.689177,1.703052,1.675676
2020-11-15 23:12:20.474,1.570048,1.680051,1.699052,1.677801
2020-11-15 23:12:20.491,1.571923,1.682051,1.693677,1.676051
2020-11-15 23:12:20.508,1.575923,1.682926,1.687551,1.675801
2020-11-15 23:12:20.525,1.573423,1.686926,1.692177,1.673801
2020-11-15 23:12:20.542,1.572798,1.696802,1.695427,1.674676
2020-11-15 23:12:20.559,1.571298,1.689802,1.704677,1.674051
2020-11-15 23:12:20.576,1.569798,1.686551,1.700052,1.674926
2020-11-15 23:12:20.593,1.570673,1.676551,1.699177,1.675926
2020-11-15 23:12:20.610,1.571673,1.682676,1.691677,1.676176
2020-11-15 23:12:20.627,1.576298,1.683926,1.688427,1.675301
2020-11-15 23:12:20.644,1.573048,1.693302,1.692052,1.674051
2020-11-15 23:12:20.661,1.572798,1.691052,1.694802,1.674676
2020-11-15 23:12:20.678,1.571048,1.690052,1.704927,1.674926
2020-11-15 23:12:20.695,1.570048,1.685426,1.699302,1.676801
2020-11-15 23:12:20.712,1.570048,1.676801,1.696677,1.676051
2020-11-15 23:12:20.729,1.573048,1.682676,1.687426,1.675926
2020-11-15 23:12:20.746,1.575048,1.684676,1.692302,1.675051
2020-11-15 23:12:20.763,1.573423,1.694427,1.691552,1.672676
2020-11-15 23:12:20.780,1.573423,1.691802,1.701052,1.674801
2020-11-15 23:12:20.797,1.569548,1.689302,1.701177,1.674926
2020-11-15 23:12:20.814,1.570673,1.683926,1.698802,1.677301
2020-11-15 23:12:20.831,1.571298,1.681926,1.695302,1.676176
2020-11-15 23:12:20.849,1.574173,1.683051,1.686051,1.675676
2020-11-15 23:12:20.866,1.573798,1.684926,1.691802,1.674926
2020-11-15 23:12:20.883,1.573048,1.694052,1.693552,1.673801
2020-11-15 23:12:20.900,1.571548,1.690302,1.701927,1.673801
2020-11-15 23:12:20.917,1.569423,1.688177,1.700552,1.675926
2020-11-15 23:12:20.934,1.571048,1.678801,1.698552,1.676676
2020-11-15 23:12:20.951,1.570298,1.681426,1.695052,1.675926
2020-11-15 23:12:20.968,1.574923,1.683051,1.685926,1.675301
2020-11-15 23:12:20.985,1.573423,1.688802,1.691802,1.674426
2020-11-15 23:12:21.002,1.572923,1.694302,1.692677,1.674551
2020-11-15 23:12:21.019,1.571548,1.690177,1.702802,1.675051
2020-11-15 23:12:21.036,1.569048,1.687301,1.699927,1.675551
2020-11-15 23:12:21.053,1.570923,1.678426,1.698302,1.676551
2020-11-15 23:12:21.070,1.572173,1.681551,1.689677,1.676051
2020-11-15 23:12:21.087,1.576173,1.683051,1.691927,1.675301
2020-11-15 23:12:21.104,1.573548,1.689802,1.692302,1.673176
2020-11-15 23:12:21.121,1.572298,1.692552,1.696677,1.673926
2020-11-15 23:12:21.138,1.569798,1.689177,1.706177,1.675426
2020-11-15 23:12:21.155,1.570798,1.686176,1.698302,1.676926
2020-11-15 23:12:21.172,1.570173,1.678676,1.697302,1.676301
2020-11-15 23:12:21.189,1.571798,1.683301,1.688302,1.675801
2020-11-15 23:12:21.206,1.576423,1.685676,1.691052,1.674801
2020-11-15 23:12:21.224,1.573548,1.691802,1.692927,1.673801
2020-11-15 23:12:21.241,1.573548,1.692302,1.694802,1.674301
2020-11-15 23:12:21.258,1.571048,1.689552,1.702927,1.675301
2020-11-15 23:12:21.275,1.569798,1.686676,1.698677,1.675676
2020-11-15 23:12:21.292,1.570548,1.677051,1.696927,1.676426
2020-11-15 23:12:21.309,1.572923,1.683301,1.688302,1.676051
2020-11-15 23:12:21.326,1.575423,1.683551,1.691677,1.674926
2020-11-15 23:12:21.343,1.572548,1.692052,1.692802,1.672676
2020-11-15 23:12:21.360,1.572423,1.690302,1.699052,1.674301
2020-11-15 23:12:21.377,1.570798,1.689302,1.703802,1.674051
2020-11-15 23:12:21.394,1.570298,1.685176,1.699052,1.676176
2020-11-15 23:12:21.411,1.570923,1.681801,1.696052,1.676051
2020-11-15 23:12:21.428,1.574173,1.683551,1.687051,1.675801
2020-11-15 23:12:21.445,1.575548,1.687051,1.691427,1.674301
2020-11-15 23:12:21.462,1.573048,1.696427,1.692677,1.674426
2020-11-15 23:12:21.479,1.571548,1.689677,1.698677,1.674926
2020-11-15 23:12:21.496,1.568673,1.688427,1.701052,1.674676
2020-11-15 23:12:21.513,1.570423,1.679801,1.698802,1.677301
2020-11-15 23:12:21.530,1.571423,1.682426,1.691802,1.675176
2020-11-15 23:12:21.547,1.576298,1.682801,1.688802,1.675801
2020-11-15 23:12:21.564,1.573923,1.687677,1.692927,1.673676
2020-11-15 23:12:21.581,1.572673,1.695552,1.695177,1.674801
2020-11-15 23:12:21.598,1.571048,1.689677,1.704552,1.674301
2020-11-15 23:12:21.615,1.570423,1.687176,1.699927,1.677301
2020-11-15 23:12:21.632,1.570298,1.675926,1.698677,1.676301
2020-11-15 23:12:21.649,1.571548,1.682926,1.691302,1.675926
2020-11-15 23:12:21.666,1.575923,1.684676,1.689677,1.675051
2020-11-15 23:12:21.683,1.573548,1.694052,1.692302,1.673176
2020-11-15 23:12:21.700,1.573048,1.691302,1.695052,1.674801
2020-11-15 23:12:21.717,1.570298,1.689802,1.704802,1.674926
2020-11-15 23:12:21.734,1.570173,1.684426,1.699052,1.676676
2020-11-15 23:12:21.751,1.571298,1.677426,1.695302,1.675926
2020-11-15 23:12:21.768,1.573923,1.682426,1.685926,1.676051
2020-11-15 23:12:21.785,1.573923,1.684926,1.692302,1.674676
2020-11-15 23:12:21.802,1.573673,1.694927,1.693677,1.673551
2020-11-15 23:12:21.819,1.571548,1.690427,1.701552,1.674051
2020-11-15 23:12:21.836,1.569673,1.688802,1.700552,1.675676
2020-11-15 23:12:21.853,1.570298,1.678801,1.699427,1.677301
2020-11-15 23:12:21.870,1.571048,1.682051,1.694927,1.675676
2020-11-15 23:12:21.887,1.574548,1.683301,1.685926,1.675426
2020-11-15 23:12:21.904,1.573548,1.689177,1.691802,1.674051
2020-11-15 23:12:21.921,1.573298,1.694427,1.692927,1.674176
2020-11-15 23:12:21.938,1.571423,1.689427,1.702177,1.673801
2020-11-15 23:12:21.955,1.569423,1.687426,1.699427,1.675926
2020-11-15 23:12:21.972,1.570798,1.678051,1.698177,1.676426
2020-11-15 23:12:21.989,1.570173,1.681801,1.693927,1.675926
2020-11-15 23:12:22.006,1.574423,1.683676,1.685551,1.675301
2020-11-15 23:12:22.023,1.573798,1.690427,1.692677,1.673676
2020-11-15 23:12:22.040,1.573673,1.695177,1.694302,1.673926
2020-11-15 23:12:22.059,1.572173,1.690427,1.703927,1.674676
2020-11-15 23:12:22.076,1.569298,1.689552,1.700552,1.675176
2020-11-15 23:12:22.093,1.570673,1.681426,1.699302,1.677051
2020-11-15 23:12:22.110,1.571298,1.681051,1.693927,1.675551
2020-11-15 23:12:22.127,1.575798,1.682426,1.687051,1.674926
2020-11-15 23:12:22.144,1.573423,1.686176,1.692927,1.674176
2020-11-15 23:12:22.161,1.573548,1.691927,1.694677,1.675051
2020-11-15 23:12:22.178,1.571298,1.689677,1.703552,1.674426
2020-11-15 23:12:22.195,1.569923,1.686676,1.699552,1.676301
2020-11-15 23:12:22.212,1.570048,1.676551,1.698427,1.676051
2020-11-15 23:12:22.229,1.571048,1.682676,1.691802,1.675926
2020-11-15 23:12:22.246,1.575173,1.683551,1.687802,1.675301
2020-11-15 23:12:22.263,1.572798,1.692927,1.692927,1.673301
2020-11-15 23:12:22.280,1.571923,1.689927,1.699302,1.674676
2020-11-15 23:12:22.297,1.570048,1.689552,1.703677,1.675051
2020-11-15 23:12:22.314,1.570173,1.685051,1.699302,1.676426
2020-11-15 23:12:22.331,1.570923,1.676301,1.696302,1.675676
2020-11-15 23:12:22.348,1.573423,1.682051,1.687301,1.676051
2020-11-15 23:12:22.365,1.575548,1.683676,1.691677,1.674301
2020-11-15 23:12:22.382,1.573423,1.696302,1.693052,1.674426
2020-11-15 23:12:22.399,1.572298,1.690677,1.699302,1.674551
2020-11-15 23:12:22.416,1.568923,1.688802,1.702677,1.675551
2020-11-15 23:12:22.433,1.571423,1.679801,1.698552,1.677301
2020-11-15 23:12:22.449,1.570423,1.682176,1.695427,1.675426
2020-11-15 23:12:22.467,1.573923,1.682676,1.685801,1.675426
2020-11-15 23:12:22.484,1.574048,1.688177,1.692552,1.674176
2020-11-15 23:12:22.500,1.573298,1.696177,1.695177,1.674426
2020-11-15 23:12:22.518,1.570798,1.690427,1.704427,1.674551
2020-11-15 23:12:22.535,1.569923,1.687927,1.699427,1.675051
2020-11-15 23:12:22.552,1.571048,1.678551,1.699052,1.676801
2020-11-15 23:12:22.569,1.571173,1.680926,1.690927,1.674176
2020-11-15 23:12:22.586,1.575548,1.682676,1.690302,1.674926
2020-11-15 23:12:22.603,1.573798,1.693427,1.692552,1.674301
2020-11-15 23:12:22.620,1.573173,1.690802,1.696677,1.674426
2020-11-15 23:12:22.637,1.570423,1.689052,1.705302,1.674676
2020-11-15 23:12:22.653,1.570173,1.684676,1.699302,1.676801
2020-11-15 23:12:22.670,1.570798,1.676801,1.697677,1.676301
2020-11-15 23:12:22.688,1.571423,1.682551,1.689677,1.676051
2020-11-15 23:12:22.704,1.575923,1.685051,1.692302,1.674676
2020-11-15 23:12:22.721,1.573423,1.694677,1.692927,1.674176
2020-11-15 23:12:22.738,1.571673,1.691177,1.700927,1.674301
2020-11-15 23:12:22.755,1.569173,1.689302,1.700052,1.675051
2020-11-15 23:12:22.772,1.571173,1.683176,1.699552,1.676801
2020-11-15 23:12:22.789,1.571173,1.677676,1.694802,1.675801
2020-11-15 23:12:22.806,1.575173,1.683051,1.686301,1.675426
2020-11-15 23:12:22.823,1.573048,1.688927,1.692677,1.674176
2020-11-15 23:12:22.840,1.572673,1.694802,1.693427,1.674426
2020-11-15 23:12:22.857,1.571548,1.690177,1.701802,1.674301
2020-11-15 23:12:22.875,1.569423,1.689427,1.705552,1.675426
2020-11-15 23:12:22.893,1.570173,1.682676,1.699177,1.677051
2020-11-15 23:12:22.910,1.570298,1.679301,1.694177,1.676551
2020-11-15 23:12:22.927,1.575923,1.682801,1.686176,1.675801
2020-11-15 23:12:22.944,1.573423,1.686176,1.692052,1.673926
2020-11-15 23:12:22.960,1.573548,1.696052,1.694177,1.673551
2020-11-15 23:12:22.977,1.572173,1.690052,1.703802,1.674176
2020-11-15 23:12:22.995,1.570298,1.688677,1.700302,1.675926
2020-11-15 23:12:23.011,1.571173,1.680676,1.699052,1.676926
2020-11-15 23:12:23.029,1.571173,1.682051,1.693302,1.676551
2020-11-15 23:12:23.045,1.575798,1.683801,1.686926,1.674926
2020-11-15 23:12:23.062,1.573923,1.691677,1.692177,1.674051
2020-11-15 23:12:23.079,1.572673,1.691427,1.693677,1.674801
2020-11-15 23:12:23.096,1.570923,1.690177,1.703677,1.674676
2020-11-15 23:12:23.113,1.569548,1.686551,1.699927,1.676676
2020-11-15 23:12:23.130,1.570923,1.676926,1.697677,1.676301
2020-11-15 23:12:23.148,1.571298,1.682801,1.692052,1.676301
2020-11-15 23:12:23.165,1.575298,1.683676,1.687677,1.675301
2020-11-15 23:12:23.182,1.573423,1.693177,1.691552,1.672926
2020-11-15 23:12:23.199,1.573048,1.690427,1.698927,1.673926
2020-11-15 23:12:23.216,1.569548,1.689677,1.703802,1.674801
2020-11-15 23:12:23.233,1.571048,1.685676,1.699052,1.676801
2020-11-15 23:12:23.250,1.571173,1.676051,1.696052,1.676176
2020-11-15 23:12:23.267,1.572673,1.682551,1.687551,1.675051
2020-11-15 23:12:23.284,1.575923,1.684301,1.691927,1.674426
2020-11-15 23:12:23.301,1.574298,1.696802,1.692927,1.674801
2020-11-15 23:12:23.318,1.572048,1.690802,1.700052,1.674801
2020-11-15 23:12:23.335,1.570048,1.688302,1.702677,1.675551
2020-11-15 23:12:23.352,1.570798,1.679676,1.698177,1.677926
2020-11-15 23:12:23.369,1.570548,1.682176,1.694802,1.675301
2020-11-15 23:12:23.386,1.575423,1.682801,1.688677,1.675926
2020-11-15 23:12:23.403,1.574423,1.687677,1.692177,1.674426
2020-11-15 23:12:23.420,1.573423,1.696427,1.695802,1.674301
2020-11-15 23:12:23.437,1.571298,1.689802,1.705177,1.673926
2020-11-15 23:12:23.454,1.570298,1.687802,1.699927,1.674801
2020-11-15 23:12:23.470,1.570548,1.678551,1.698552,1.676176
2020-11-15 23:12:23.488,1.572048,1.682551,1.690802,1.675551
2020-11-15 23:12:23.505,1.576798,1.685176,1.690052,1.675051
2020-11-15 23:12:23.521,1.573548,1.694177,1.692802,1.673551
2020-11-15 23:12:23.538,1.573048,1.690802,1.695552,1.674551
2020-11-15 23:12:23.555,1.569548,1.689552,1.704302,1.674801
2020-11-15 23:12:23.572,1.570298,1.684801,1.699052,1.676426
2020-11-15 23:12:23.589,1.571173,1.677551,1.695802,1.675676
2020-11-15 23:12:23.606,1.574298,1.682426,1.686926,1.676051
2020-11-15 23:12:23.623,1.574298,1.684926,1.691802,1.674301
2020-11-15 23:12:23.640,1.572923,1.694552,1.693302,1.673551
2020-11-15 23:12:23.657,1.571798,1.689802,1.701802,1.674801
2020-11-15 23:12:23.674,1.569298,1.687677,1.700052,1.675676
2020-11-15 23:12:23.691,1.570923,1.682301,1.699177,1.677426
2020-11-15 23:12:23.710,1.570798,1.678051,1.697552,1.676551
2020-11-15 23:12:23.727,1.571798,1.683176,1.688427,1.676176
2020-11-15 23:12:23.744,1.576548,1.686301,1.690927,1.675176
2020-11-15 23:12:23.760,1.573298,1.695427,1.692302,1.674301
2020-11-15 23:12:23.777,1.572048,1.690927,1.703552,1.675051
2020-11-15 23:12:23.794,1.569298,1.689677,1.700177,1.674926
2020-11-15 23:12:23.811,1.570423,1.681801,1.698802,1.676551
2020-11-15 23:12:23.829,1.571173,1.679926,1.695177,1.675801
2020-11-15 23:12:23.845,1.574173,1.681801,1.686176,1.675301
2020-11-15 23:12:23.862,1.574048,1.686176,1.692677,1.673801
2020-11-15 23:12:23.879,1.573673,1.693677,1.693552,1.674551
2020-11-15 23:12:23.896,1.571548,1.690052,1.703552,1.674926
2020-11-15 23:12:23.913,1.570173,1.686926,1.700052,1.676051
2020-11-15 23:12:23.930,1.570798,1.677801,1.698177,1.674926
2020-11-15 23:12:23.947,1.571923,1.682426,1.693677,1.676551
2020-11-15 23:12:23.965,1.574923,1.683801,1.687051,1.674801
2020-11-15 23:12:23.982,1.573423,1.691302,1.692177,1.674051
2020-11-15 23:12:23.999,1.572798,1.691427,1.694802,1.674801
2020-11-15 23:12:24.016,1.571173,1.690052,1.703552,1.674426
2020-11-15 23:12:24.033,1.570048,1.686301,1.699302,1.677176
2020-11-15 23:12:24.050,1.571048,1.676676,1.697177,1.676051
2020-11-15 23:12:24.067,1.572798,1.682051,1.688052,1.675676
2020-11-15 23:12:24.084,1.576048,1.683051,1.691302,1.674176
2020-11-15 23:12:24.100,1.573173,1.692052,1.692927,1.673301
2020-11-15 23:12:24.118,1.572923,1.690677,1.698427,1.673801
2020-11-15 23:12:24.135,1.570423,1.689302,1.704177,1.675301
2020-11-15 23:12:24.152,1.570673,1.680551,1.699177,1.677426
2020-11-15 23:12:24.169,1.570798,1.682051,1.696552,1.675801
2020-11-15 23:12:24.186,1.573423,1.682426,1.687301,1.676051
2020-11-15 23:12:24.203,1.574923,1.687426,1.691302,1.673676
2020-11-15 23:12:24.220,1.573548,1.696177,1.692302,1.674176
2020-11-15 23:12:24.236,1.571423,1.690427,1.704052,1.674676
2020-11-15 23:12:24.253,1.570298,1.688927,1.700427,1.675551
2020-11-15 23:12:24.270,1.570673,1.679301,1.698677,1.677301
2020-11-15 23:12:24.287,1.571923,1.681801,1.692052,1.675426
2020-11-15 23:12:24.304,1.575173,1.683051,1.688302,1.675551
2020-11-15 23:12:24.321,1.573423,1.687176,1.692427,1.674051
2020-11-15 23:12:24.338,1.572673,1.695927,1.695177,1.674676
2020-11-15 23:12:24.355,1.570173,1.689552,1.704677,1.674676
2020-11-15 23:12:24.372,1.570048,1.685176,1.699552,1.676926
2020-11-15 23:12:24.389,1.569798,1.675926,1.697802,1.676051
2020-11-15 23:12:24.406,1.571673,1.682926,1.690552,1.676051
2020-11-15 23:12:24.423,1.576173,1.684426,1.689677,1.674926
2020-11-15 23:12:24.440,1.573173,1.693677,1.692927,1.673801
2020-11-15 23:12:24.457,1.572173,1.690802,1.700552,1.674551
2020-11-15 23:12:24.474,1.569798,1.689427,1.702052,1.674801
2020-11-15 23:12:24.491,1.570798,1.684176,1.699302,1.676926
2020-11-15 23:12:24.508,1.571173,1.677051,1.695302,1.675801
2020-11-15 23:12:24.527,1.572798,1.681801,1.690302,1.675426
2020-11-15 23:12:24.544,1.576548,1.682551,1.691177,1.674926
2020-11-15 23:12:24.561,1.573298,1.689427,1.692677,1.674051
2020-11-15 23:12:24.578,1.573423,1.690677,1.696302,1.674926
2020-11-15 23:12:24.595,1.570798,1.689677,1.705552,1.674926
2020-11-15 23:12:24.612,1.570173,1.683176,1.699177,1.676551
2020-11-15 23:12:24.629,1.570923,1.679051,1.697302,1.676176
2020-11-15 23:12:24.646,1.572298,1.682926,1.688302,1.676051
2020-11-15 23:12:24.663,1.575798,1.685676,1.691927,1.674801
2020-11-15 23:12:24.679,1.573548,1.694927,1.693677,1.674301
2020-11-15 23:12:24.696,1.571673,1.689927,1.702802,1.673926
2020-11-15 23:12:24.713,1.569923,1.689052,1.699927,1.674551
2020-11-15 23:12:24.731,1.570548,1.682301,1.698802,1.676426
2020-11-15 23:12:24.748,1.571923,1.679676,1.695302,1.675676
2020-11-15 23:12:24.764,1.574923,1.682426,1.686051,1.675301
2020-11-15 23:12:24.781,1.573923,1.690802,1.692552,1.673551
2020-11-15 23:12:24.799,1.574048,1.693302,1.693927,1.674301
2020-11-15 23:12:24.816,1.571673,1.690052,1.703052,1.674676
2020-11-15 23:12:24.833,1.570048,1.686676,1.700302,1.676051
2020-11-15 23:12:24.849,1.570298,1.677426,1.698677,1.676551
2020-11-15 23:12:24.866,1.571423,1.681426,1.694052,1.676551
2020-11-15 23:12:24.883,1.575673,1.683301,1.691677,1.675551
2020-11-15 23:12:24.900,1.573673,1.691052,1.692927,1.673676
2020-11-15 23:12:24.917,1.572673,1.691677,1.697802,1.674426
2020-11-15 23:12:24.935,1.569923,1.690177,1.705677,1.674176
2020-11-15 23:12:24.951,1.570548,1.685801,1.699177,1.676676
2020-11-15 23:12:24.969,1.571173,1.676426,1.697302,1.675676
2020-11-15 23:12:24.985,1.573048,1.682301,1.688177,1.675176
2020-11-15 23:12:25.003,1.576423,1.682926,1.691177,1.674301
2020-11-15 23:12:25.019,1.574048,1.695802,1.692927,1.674801
2020-11-15 23:12:25.037,1.572173,1.690052,1.698052,1.674176
2020-11-15 23:12:25.053,1.569923,1.689802,1.704052,1.675301
2020-11-15 23:12:25.070,1.570173,1.680926,1.698677,1.677551
2020-11-15 23:12:25.088,1.570298,1.682176,1.696177,1.676176
2020-11-15 23:12:25.104,1.573548,1.683051,1.686801,1.676051
2020-11-15 23:12:25.121,1.575548,1.686676,1.690677,1.674176
2020-11-15 23:12:25.139,1.573298,1.696802,1.695302,1.674426
2020-11-15 23:12:25.156,1.571423,1.690302,1.704427,1.674926
2020-11-15 23:12:25.173,1.570173,1.688927,1.700177,1.675301
2020-11-15 23:12:25.190,1.571298,1.679426,1.698677,1.677176
2020-11-15 23:12:25.207,1.571673,1.682301,1.692552,1.675426
2020-11-15 23:12:25.223,1.575923,1.682926,1.688802,1.675176
2020-11-15 23:12:25.241,1.573923,1.686426,1.692427,1.673176
2020-11-15 23:12:25.258,1.573423,1.690552,1.695927,1.674551
2020-11-15 23:12:25.275,1.570548,1.690052,1.705177,1.674676
2020-11-15 23:12:25.291,1.569423,1.685801,1.699677,1.676301
2020-11-15 23:12:25.309,1.569923,1.676676,1.697802,1.676176
2020-11-15 23:12:25.326,1.571923,1.682676,1.691302,1.675801
2020-11-15 23:12:25.343,1.576048,1.682301,1.685676,1.675801
2020-11-15 23:12:25.361,1.574048,1.688427,1.692927,1.673426
2020-11-15 23:12:25.378,1.572798,1.695552,1.696052,1.674551
2020-11-15 23:12:25.395,1.571048,1.689677,1.706052,1.674301
2020-11-15 23:12:25.412,1.570423,1.687677,1.699677,1.675551
2020-11-15 23:12:25.429,1.569798,1.678051,1.698552,1.676426
2020-11-15 23:12:25.446,1.570548,1.682426,1.694177,1.675551
2020-11-15 23:12:25.463,1.574173,1.683176,1.685551,1.675926
2020-11-15 23:12:25.480,1.574798,1.689302,1.693052,1.674301
2020-11-15 23:12:25.497,1.573048,1.693552,1.696802,1.674551
2020-11-15 23:12:25.514,1.570798,1.689927,1.705927,1.674426
2020-11-15 23:12:25.531,1.570173,1.686426,1.699927,1.675551
2020-11-15 23:12:25.548,1.570923,1.677551,1.698052,1.676301
2020-11-15 23:12:25.565,1.572298,1.681426,1.689177,1.675926
2020-11-15 23:12:25.582,1.576423,1.685426,1.690677,1.674676
2020-11-15 23:12:25.599,1.573173,1.695052,1.693177,1.674051
2020-11-15 23:12:25.616,1.572548,1.691177,1.697302,1.674926
2020-11-15 23:12:25.633,1.569673,1.689427,1.705802,1.675551
2020-11-15 23:12:25.650,1.570048,1.683176,1.698802,1.677051
2020-11-15 23:12:25.667,1.570923,1.679301,1.697052,1.676551
2020-11-15 23:12:25.684,1.572173,1.682801,1.687677,1.675801
2020-11-15 23:12:25.701,1.574298,1.686176,1.692677,1.675426
2020-11-15 23:12:25.718,1.573548,1.695302,1.694052,1.674051
2020-11-15 23:12:25.735,1.571923,1.691052,1.704177,1.674801
2020-11-15 23:12:25.752,1.570298,1.689552,1.699802,1.674926
2020-11-15 23:12:25.769,1.570798,1.681301,1.699052,1.676926
2020-11-15 23:12:25.786,1.572048,1.680801,1.694052,1.675551
2020-11-15 23:12:25.803,1.576298,1.682551,1.686426,1.675301
2020-11-15 23:12:25.820,1.574798,1.691302,1.692052,1.674051
2020-11-15 23:12:25.837,1.573048,1.693052,1.694177,1.674801
2020-11-15 23:12:25.854,1.571798,1.690302,1.703552,1.675176
2020-11-15 23:12:25.871,1.569298,1.686176,1.699302,1.676051
2020-11-15 23:12:25.888,1.571173,1.676426,1.698177,1.676676
2020-11-15 23:12:25.905,1.572423,1.682801,1.692302,1.676051
2020-11-15 23:12:25.922,1.576548,1.683176,1.691552,1.675301
2020-11-15 23:12:25.939,1.573423,1.692177,1.693177,1.673801
2020-11-15 23:12:25.956,1.572923,1.691427,1.697927,1.674676
2020-11-15 23:12:25.973,1.570173,1.689802,1.704427,1.675551
2020-11-15 23:12:25.990,1.570423,1.685926,1.699177,1.676051
2020-11-15 23:12:26.007,1.571048,1.676676,1.697052,1.675801
2020-11-15 23:12:26.024,1.573173,1.682801,1.687551,1.675301
2020-11-15 23:12:26.041,1.575923,1.683301,1.691302,1.674301
2020-11-15 23:12:26.058,1.573798,1.696802,1.692927,1.674801
2020-11-15 23:12:26.075,1.572298,1.690552,1.699302,1.674676
2020-11-15 23:12:26.092,1.570673,1.689177,1.703427,1.676176
2020-11-15 23:12:26.109,1.570798,1.680176,1.698677,1.676801
2020-11-15 23:12:26.126,1.570923,1.681926,1.696177,1.676301
2020-11-15 23:12:26.143,1.572923,1.683426,1.686301,1.676051
2020-11-15 23:12:26.160,1.574673,1.687301,1.692927,1.674051
2020-11-15 23:12:26.179,1.572923,1.694802,1.693302,1.673801
2020-11-15 23:12:26.196,1.572423,1.690927,1.700427,1.674426
2020-11-15 23:12:26.213,1.570048,1.690052,1.702302,1.675051
2020-11-15 23:12:26.230,1.570298,1.684551,1.699302,1.676551
2020-11-15 23:12:26.247,1.571048,1.677176,1.696302,1.676051
2020-11-15 23:12:26.264,1.574048,1.682676,1.686426,1.674801
2020-11-15 23:12:26.281,1.574048,1.684676,1.691927,1.674426
2020-11-15 23:12:26.298,1.572923,1.696427,1.692927,1.675051
2020-11-15 23:12:26.315,1.571923,1.690427,1.701802,1.675176
2020-11-15 23:12:26.332,1.570048,1.688302,1.700052,1.675676
2020-11-15 23:12:26.349,1.570423,1.678926,1.698177,1.676926
2020-11-15 23:12:26.366,1.571173,1.682676,1.694677,1.676426
2020-11-15 23:12:26.383,1.574298,1.683176,1.690802,1.675801
2020-11-15 23:12:26.400,1.573298,1.689052,1.693052,1.673676
2020-11-15 23:12:26.416,1.573548,1.694302,1.696427,1.673926
2020-11-15 23:12:26.433,1.569798,1.689802,1.705927,1.674676
2020-11-15 23:12:26.450,1.570923,1.687551,1.700177,1.675426
2020-11-15 23:12:26.467,1.571048,1.678301,1.698302,1.676176
2020-11-15 23:12:26.484,1.572673,1.681301,1.689802,1.675676
2020-11-15 23:12:26.501,1.576173,1.685801,1.691802,1.675176
2020-11-15 23:12:26.518,1.573548,1.694552,1.692427,1.674051
2020-11-15 23:12:26.535,1.572548,1.691427,1.697427,1.675176
2020-11-15 23:12:26.553,1.570298,1.689677,1.705802,1.674801
2020-11-15 23:12:26.570,1.570048,1.683551,1.699052,1.677051
2020-11-15 23:12:26.586,1.570548,1.678926,1.697302,1.675801
2020-11-15 23:12:26.603,1.572048,1.683426,1.685926,1.676426
2020-11-15 23:12:26.620,1.574298,1.685926,1.692302,1.674926
2020-11-15 23:12:26.637,1.573798,1.696052,1.693927,1.674426
2020-11-15 23:12:26.654,1.571673,1.691052,1.702802,1.674551
2020-11-15 23:12:26.672,1.569673,1.689552,1.699427,1.674551
2020-11-15 23:12:26.689,1.571298,1.682176,1.699677,1.676926
2020-11-15 23:12:26.705,1.571423,1.679926,1.694302,1.675926
2020-11-15 23:12:26.723,1.574923,1.681801,1.686051,1.676176
2020-11-15 23:12:26.740,1.574423,1.690802,1.692677,1.673926
2020-11-15 23:12:26.756,1.573548,1.693552,1.694427,1.673801
2020-11-15 23:12:26.773,1.571298,1.690052,1.703677,1.674926
2020-11-15 23:12:26.790,1.569423,1.686801,1.699677,1.676051
2020-11-15 23:12:26.807,1.570423,1.677551,1.698052,1.677301
2020-11-15 23:12:26.824,1.571673,1.682926,1.688677,1.676301
2020-11-15 23:12:26.841,1.576673,1.683426,1.692177,1.675801
2020-11-15 23:12:26.858,1.573048,1.691802,1.692927,1.673926
2020-11-15 23:12:26.875,1.573298,1.692552,1.698052,1.674551
2020-11-15 23:12:26.892,1.570423,1.690177,1.705427,1.674676
2020-11-15 23:12:26.909,1.570673,1.686301,1.699177,1.675176
2020-11-15 23:12:26.926,1.571673,1.676926,1.697677,1.676051
2020-11-15 23:12:26.943,1.573298,1.683051,1.687301,1.676301
2020-11-15 23:12:26.960,1.576173,1.686301,1.691677,1.675051
2020-11-15 23:12:26.977,1.573673,1.695802,1.693052,1.674176
2020-11-15 23:12:26.994,1.572298,1.690052,1.695302,1.674676
2020-11-15 23:12:27.013,1.570548,1.690177,1.704052,1.675301
2020-11-15 23:12:27.030,1.569923,1.686301,1.699177,1.677051
2020-11-15 23:12:27.047,1.569923,1.676801,1.697677,1.676301
2020-11-15 23:12:27.064,1.572548,1.682551,1.687927,1.676301
2020-11-15 23:12:27.081,1.575798,1.684551,1.692427,1.675176
2020-11-15 23:12:27.098,1.573298,1.693427,1.693302,1.673426
2020-11-15 23:12:27.115,1.572673,1.690427,1.699677,1.674551
2020-11-15 23:12:27.131,1.570048,1.689552,1.702802,1.675176
2020-11-15 23:12:27.149,1.570798,1.684176,1.699302,1.677426
2020-11-15 23:12:27.166,1.571173,1.682301,1.696427,1.676176
2020-11-15 23:12:27.183,1.574048,1.683051,1.687051,1.675801
2020-11-15 23:12:27.200,1.574298,1.687426,1.691302,1.674176
2020-11-15 23:12:27.216,1.573798,1.697052,1.693177,1.674426
2020-11-15 23:12:27.233,1.571673,1.689927,1.700427,1.675301
2020-11-15 23:12:27.250,1.569673,1.688677,1.701052,1.675801
2020-11-15 23:12:27.267,1.570673,1.678676,1.698677,1.677176
2020-11-15 23:12:27.284,1.572048,1.682426,1.691677,1.675551
2020-11-15 23:12:27.301,1.576173,1.683551,1.690302,1.675676
2020-11-15 23:12:27.318,1.574048,1.688052,1.692802,1.674176
2020-11-15 23:12:27.335,1.573298,1.696177,1.695927,1.674176
2020-11-15 23:12:27.352,1.571048,1.689677,1.705802,1.675176
2020-11-15 23:12:27.369,1.570423,1.685301,1.700677,1.676301
2020-11-15 23:12:27.386,1.570798,1.676801,1.698552,1.675926
2020-11-15 23:12:27.403,1.571923,1.682926,1.690052,1.676301
2020-11-15 23:12:27.420,1.576923,1.684926,1.690927,1.674926
2020-11-15 23:12:27.437,1.572673,1.694677,1.691927,1.673926
2020-11-15 23:12:27.454,1.572673,1.691802,1.695927,1.675051
2020-11-15 23:12:27.471,1.569798,1.690052,1.701677,1.675051
2020-11-15 23:12:27.488,1.570673,1.684051,1.699427,1.676426
2020-11-15 23:12:27.505,1.570298,1.677551,1.695177,1.675926
2020-11-15 23:12:27.522,1.574173,1.682301,1.686176,1.675176
2020-11-15 23:12:27.539,1.575048,1.684426,1.692052,1.673926
2020-11-15 23:12:27.556,1.573423,1.695802,1.693552,1.674551
2020-11-15 23:12:27.573,1.572173,1.690677,1.702177,1.674676
2020-11-15 23:12:27.590,1.569423,1.687802,1.699927,1.675926
2020-11-15 23:12:27.607,1.570298,1.678426,1.699677,1.677551
2020-11-15 23:12:27.624,1.570673,1.682301,1.695052,1.675926
2020-11-15 23:12:27.641,1.575298,1.683676,1.685551,1.675426
2020-11-15 23:12:27.658,1.574048,1.689552,1.692552,1.673676
2020-11-15 23:12:27.675,1.573048,1.694427,1.696427,1.674301
2020-11-15 23:12:27.692,1.570548,1.690177,1.706427,1.674676
2020-11-15 23:12:27.709,1.570673,1.686676,1.699677,1.676176
2020-11-15 23:12:27.726,1.571548,1.677176,1.698427,1.676551
2020-11-15 23:12:27.743,1.572173,1.682176,1.689177,1.676051
2020-11-15 23:12:27.761,1.576673,1.683301,1.691552,1.675551
2020-11-15 23:12:27.778,1.573923,1.690677,1.692927,1.673426
2020-11-15 23:12:27.795,1.573048,1.693552,1.696802,1.674426
2020-11-15 23:12:27.812,1.570673,1.690177,1.706302,1.673676
2020-11-15 23:12:27.830,1.570048,1.689052,1.700552,1.675426
2020-11-15 23:12:27.847,1.571548,1.680551,1.699427,1.676926
2020-11-15 23:12:27.864,1.571673,1.682426,1.693927,1.675551
2020-11-15 23:12:27.881,1.575548,1.683801,1.687301,1.675551
2020-11-15 23:12:27.898,1.574298,1.691677,1.692177,1.673926
2020-11-15 23:12:27.915,1.573798,1.691802,1.694677,1.674676
2020-11-15 23:12:27.932,1.571048,1.689677,1.703052,1.674551
2020-11-15 23:12:27.949,1.570298,1.687051,1.699302,1.676801
2020-11-15 23:12:27.966,1.571173,1.677051,1.697552,1.676176
2020-11-15 23:12:27.983,1.573798,1.682426,1.688177,1.676426
2020-11-15 23:12:28.000,1.576548,1.683426,1.691927,1.674801
2020-11-15 23:12:28.017,1.573923,1.692052,1.692677,1.673301
2020-11-15 23:12:28.034,1.572798,1.689927,1.698927,1.675301
2020-11-15 23:12:28.051,1.570923,1.689802,1.703927,1.675051
2020-11-15 23:12:28.068,1.570423,1.681301,1.699052,1.677676
2020-11-15 23:12:28.085,1.570798,1.682176,1.696927,1.676301
2020-11-15 23:12:28.102,1.573298,1.683551,1.687301,1.676301
2020-11-15 23:12:28.119,1.575298,1.686551,1.691427,1.674426
2020-11-15 23:12:28.135,1.572798,1.696177,1.694927,1.674551
2020-11-15 23:12:28.152,1.571548,1.690552,1.704052,1.673926
2020-11-15 23:12:28.169,1.570423,1.688427,1.700302,1.675051
2020-11-15 23:12:28.186,1.570423,1.679676,1.698802,1.677051
2020-11-15 23:12:28.203,1.572798,1.681676,1.692177,1.675551
2020-11-15 23:12:28.220,1.576673,1.682551,1.688427,1.675676
2020-11-15 23:12:28.237,1.574173,1.693052,1.692302,1.673551
2020-11-15 23:12:28.254,1.573798,1.690802,1.695427,1.674426
2020-11-15 23:12:28.271,1.571048,1.689677,1.704677,1.675051
2020-11-15 23:12:28.288,1.570298,1.685801,1.699552,1.677051
2020-11-15 23:12:28.305,1.570298,1.676426,1.696802,1.676426
2020-11-15 23:12:28.322,1.573673,1.682676,1.687426,1.675551
2020-11-15 23:12:28.339,1.575423,1.684801,1.691927,1.675051
2020-11-15 23:12:28.356,1.573048,1.693552,1.693052,1.673426
2020-11-15 23:12:28.373,1.572673,1.690677,1.700802,1.674051
2020-11-15 23:12:28.390,1.570548,1.689677,1.701927,1.674551
2020-11-15 23:12:28.407,1.570923,1.679301,1.699302,1.676926
2020-11-15 23:12:28.424,1.571423,1.682176,1.696427,1.676051
2020-11-15 23:12:28.441,1.573673,1.683176,1.686301,1.675801
2020-11-15 23:12:28.458,1.574798,1.687176,1.691427,1.673801
2020-11-15 23:12:28.475,1.573673,1.696677,1.693427,1.674801
2020-11-15 23:12:28.492,1.572048,1.689677,1.700552,1.674176
2020-11-15 23:12:28.509,1.569048,1.688052,1.699427,1.675676
2020-11-15 23:12:28.526,1.571298,1.679426,1.699177,1.677301
2020-11-15 23:12:28.543,1.572173,1.681801,1.691677,1.675926
2020-11-15 23:12:28.560,1.577173,1.682551,1.690552,1.675301
2020-11-15 23:12:28.577,1.574423,1.687927,1.692802,1.673426
2020-11-15 23:12:28.594,1.573048,1.695052,1.695552,1.673801
2020-11-15 23:12:28.611,1.570673,1.689302,1.705427,1.674676
2020-11-15 23:12:28.628,1.570798,1.684801,1.699302,1.676551
2020-11-15 23:12:28.645,1.570923,1.678176,1.699552,1.677176
2020-11-15 23:12:28.663,1.571298,1.681801,1.695177,1.675426
2020-11-15 23:12:28.680,1.575048,1.682926,1.685926,1.675551
2020-11-15 23:12:28.697,1.573923,1.689552,1.692552,1.673926
2020-11-15 23:12:28.714,1.572548,1.694052,1.693427,1.673926
2020-11-15 23:12:28.731,1.571548,1.690052,1.705802,1.675051
2020-11-15 23:12:28.748,1.570423,1.686551,1.699802,1.675926
2020-11-15 23:12:28.765,1.570548,1.678051,1.697927,1.676801
2020-11-15 23:12:28.782,1.572048,1.681926,1.688677,1.676176
2020-11-15 23:12:28.799,1.576048,1.682676,1.691427,1.674926
2020-11-15 23:12:28.816,1.573423,1.689927,1.692802,1.673051
2020-11-15 23:12:28.833,1.573298,1.692177,1.696552,1.675051
2020-11-15 23:12:28.850,1.569548,1.689052,1.706427,1.675301
2020-11-15 23:12:28.867,1.570923,1.682551,1.699302,1.677676
2020-11-15 23:12:28.884,1.571173,1.679301,1.697302,1.676426
2020-11-15 23:12:28.901,1.572923,1.682801,1.688302,1.676051
2020-11-15 23:12:28.918,1.576423,1.685801,1.691052,1.674551
2020-11-15 23:12:28.935,1.573298,1.695302,1.691677,1.674051
2020-11-15 23:12:28.952,1.572048,1.690302,1.704052,1.673926
2020-11-15 23:12:28.969,1.569548,1.690052,1.700802,1.675176
2020-11-15 23:12:28.986,1.570173,1.682176,1.698927,1.677551
2020-11-15 23:12:29.003,1.571423,1.680551,1.694302,1.676051
2020-11-15 23:12:29.020,1.575423,1.683051,1.686926,1.675801
2020-11-15 23:12:29.037,1.574298,1.686051,1.692427,1.673676
2020-11-15 23:12:29.054,1.572923,1.695552,1.694177,1.673926
2020-11-15 23:12:29.071,1.571173,1.690302,1.704177,1.674426
2020-11-15 23:12:29.088,1.569798,1.688052,1.700052,1.676801
2020-11-15 23:12:29.105,1.571173,1.677301,1.699552,1.676676
2020-11-15 23:12:29.122,1.571423,1.682676,1.693177,1.675676
2020-11-15 23:12:29.139,1.575673,1.682926,1.686926,1.675426
2020-11-15 23:12:29.156,1.573798,1.691802,1.692052,1.673301
2020-11-15 23:12:29.173,1.572673,1.691427,1.694177,1.675176
2020-11-15 23:12:29.190,1.570423,1.690302,1.703677,1.675676
2020-11-15 23:12:29.207,1.569048,1.686551,1.699552,1.676676
2020-11-15 23:12:29.224,1.570423,1.676676,1.697052,1.676051
2020-11-15 23:12:29.241,1.573923,1.682551,1.687426,1.675301
2020-11-15 23:12:29.258,1.576048,1.683801,1.691677,1.675051
2020-11-15 23:12:29.275,1.573173,1.692552,1.693302,1.673426
2020-11-15 23:12:29.292,1.571673,1.690052,1.698802,1.674176
2020-11-15 23:12:29.309,1.570423,1.689552,1.703552,1.675301
2020-11-15 23:12:29.326,1.570923,1.680801,1.699177,1.677426
2020-11-15 23:12:29.343,1.571923,1.681676,1.696177,1.675926
2020-11-15 23:12:29.360,1.573548,1.683301,1.687176,1.675801
2020-11-15 23:12:29.377,1.574923,1.686801,1.691552,1.673551
2020-11-15 23:12:29.394,1.573173,1.696677,1.692677,1.674676
2020-11-15 23:12:29.411,1.571798,1.690677,1.699302,1.674801
2020-11-15 23:12:29.428,1.569923,1.688802,1.699927,1.675676
2020-11-15 23:12:29.445,1.571173,1.679301,1.699552,1.677676
2020-11-15 23:12:29.462,1.571923,1.682051,1.692052,1.675176
2020-11-15 23:12:29.480,1.574548,1.683301,1.687426,1.675801
2020-11-15 23:12:29.498,1.574923,1.684676,1.692427,1.675176
2020-11-15 23:12:29.515,1.573423,1.693552,1.692552,1.673926
2020-11-15 23:12:29.532,1.571923,1.690427,1.701177,1.674176
2020-11-15 23:12:29.549,1.570048,1.689302,1.701052,1.674551
2020-11-15 23:12:29.566,1.570798,1.683676,1.699802,1.676301
2020-11-15 23:12:29.583,1.572048,1.677551,1.695677,1.676426
2020-11-15 23:12:29.600,1.574548,1.683426,1.685926,1.675551
2020-11-15 23:12:29.617,1.573673,1.688927,1.691302,1.673801
2020-11-15 23:12:29.634,1.573173,1.695802,1.693052,1.674551
2020-11-15 23:12:29.651,1.572048,1.690052,1.701302,1.674926
2020-11-15 23:12:29.668,1.569923,1.688302,1.699677,1.675551
2020-11-15 23:12:29.685,1.570423,1.678426,1.698927,1.677176
2020-11-15 23:12:29.702,1.570173,1.682176,1.694052,1.676176
2020-11-15 23:12:29.719,1.577298,1.683801,1.691052,1.675426
2020-11-15 23:12:29.736,1.573923,1.689677,1.693177,1.673676
2020-11-15 23:12:29.753,1.572923,1.693552,1.696177,1.674051
2020-11-15 23:12:29.770,1.570673,1.689927,1.706427,1.674551
2020-11-15 23:12:29.787,1.570923,1.686301,1.699052,1.675676
2020-11-15 23:12:29.804,1.570923,1.677926,1.698427,1.676301
2020-11-15 23:12:29.821,1.572923,1.682801,1.689302,1.676051
2020-11-15 23:12:29.838,1.576923,1.684926,1.691552,1.675176
2020-11-15 23:12:29.855,1.572923,1.694927,1.692302,1.673676
2020-11-15 23:12:29.872,1.572923,1.691802,1.696427,1.675176
2020-11-15 23:12:29.889,1.570298,1.689927,1.705427,1.675426
2020-11-15 23:12:29.906,1.571048,1.683426,1.698677,1.677051
2020-11-15 23:12:29.923,1.570673,1.679051,1.695552,1.676176
2020-11-15 23:12:29.940,1.574673,1.682801,1.685801,1.675801
2020-11-15 23:12:29.957,1.573798,1.686051,1.692302,1.674426
2020-11-15 23:12:29.974,1.573548,1.695677,1.694052,1.673801
2020-11-15 23:12:29.991,1.571423,1.690427,1.703927,1.675051
2020-11-15 23:12:30.008,1.569423,1.689052,1.700052,1.675051
2020-11-15 23:12:30.025,1.571173,1.681676,1.699302,1.676801
2020-11-15 23:12:30.042,1.571173,1.680676,1.694677,1.676051
2020-11-15 23:12:30.059,1.575798,1.682676,1.686301,1.675926
2020-11-15 23:12:30.076,1.573798,1.686176,1.692927,1.674676
2020-11-15 23:12:30.093,1.573298,1.695927,1.694177,1.674176
2020-11-15 23:12:30.110,1.571548,1.690302,1.703677,1.674301
2020-11-15 23:12:30.127,1.570173,1.689802,1.700052,1.674676
2020-11-15 23:12:30.144,1.571048,1.680176,1.698552,1.676551
2020-11-15 23:12:30.161,1.571548,1.681176,1.694052,1.676426
2020-11-15 23:12:30.178,1.576048,1.683551,1.687301,1.675176
2020-11-15 23:12:30.195,1.573923,1.690927,1.692052,1.674301
2020-11-15 23:12:30.212,1.573048,1.691552,1.694927,1.675176
2020-11-15 23:12:30.229,1.571798,1.689927,1.704052,1.675051
2020-11-15 23:12:30.246,1.569673,1.685801,1.699427,1.675926
2020-11-15 23:12:30.263,1.570548,1.676426,1.698302,1.676176
2020-11-15 23:12:30.280,1.571298,1.682926,1.688052,1.676051
2020-11-15 23:12:30.297,1.576173,1.681801,1.688302,1.675926
2020-11-15 23:12:30.316,1.573423,1.687551,1.692427,1.674051
2020-11-15 23:12:30.333,1.573673,1.696177,1.695427,1.674051
2020-11-15 23:12:30.350,1.570798,1.689927,1.704302,1.674426
2020-11-15 23:12:30.367,1.570048,1.688177,1.700177,1.675301
2020-11-15 23:12:30.383,1.571423,1.678301,1.698552,1.676801
2020-11-15 23:12:30.401,1.572048,1.681176,1.691677,1.675301
2020-11-15 23:12:30.418,1.576423,1.682801,1.689927,1.675551
2020-11-15 23:12:30.435,1.573923,1.693302,1.692427,1.673926
2020-11-15 23:12:30.452,1.573173,1.690802,1.695927,1.674926
2020-11-15 23:12:30.469,1.570923,1.690052,1.704927,1.675051
2020-11-15 23:12:30.486,1.569423,1.685176,1.699677,1.677051
2020-11-15 23:12:30.503,1.570923,1.677551,1.698177,1.676176
2020-11-15 23:12:30.520,1.571798,1.683176,1.690177,1.676051
2020-11-15 23:12:30.537,1.576548,1.684676,1.691927,1.675426
2020-11-15 23:12:30.554,1.574423,1.694302,1.693927,1.673676
2020-11-15 23:12:30.570,1.571923,1.690677,1.701302,1.674426
2020-11-15 23:12:30.588,1.570423,1.689552,1.701552,1.674926
2020-11-15 23:12:30.605,1.571048,1.683301,1.699677,1.675926
2020-11-15 23:12:30.622,1.571048,1.678426,1.696802,1.676176
2020-11-15 23:12:30.639,1.574548,1.682801,1.686676,1.676301
2020-11-15 23:12:30.656,1.573798,1.688552,1.691677,1.674301
2020-11-15 23:12:30.673,1.573673,1.696052,1.693427,1.674051
2020-11-15 23:12:30.690,1.571548,1.690302,1.702427,1.674676
2020-11-15 23:12:30.707,1.569423,1.687426,1.700302,1.675676
2020-11-15 23:12:30.724,1.571048,1.678926,1.698677,1.677051
2020-11-15 23:12:30.741,1.571173,1.682051,1.695052,1.676176
2020-11-15 23:12:30.758,1.574673,1.683176,1.691552,1.675051
2020-11-15 23:12:30.775,1.573798,1.688677,1.692552,1.674676
2020-11-15 23:12:30.791,1.573423,1.694927,1.696927,1.674426
2020-11-15 23:12:30.809,1.571423,1.689927,1.705927,1.674676
2020-11-15 23:12:30.826,1.571048,1.687301,1.700177,1.675176
2020-11-15 23:12:30.843,1.570798,1.677426,1.698177,1.676426
2020-11-15 23:12:30.860,1.572298,1.681551,1.689427,1.675926
2020-11-15 23:12:30.877,1.576923,1.685676,1.691302,1.675426
2020-11-15 23:12:30.894,1.574048,1.694677,1.692302,1.673551
2020-11-15 23:12:30.911,1.572673,1.691052,1.697177,1.674676
2020-11-15 23:12:30.928,1.570673,1.689552,1.705427,1.675301
2020-11-15 23:12:30.945,1.570298,1.683051,1.698802,1.677051
2020-11-15 23:12:30.962,1.570923,1.678926,1.696802,1.676801
2020-11-15 23:12:30.979,1.572673,1.681551,1.687551,1.675426
2020-11-15 23:12:30.996,1.576673,1.686051,1.691802,1.674926
2020-11-15 23:12:31.013,1.572923,1.695052,1.691052,1.673801
2020-11-15 23:12:31.030,1.571798,1.691927,1.697427,1.675176
2020-11-15 23:12:31.047,1.569298,1.689552,1.704927,1.675551
2020-11-15 23:12:31.064,1.570673,1.682051,1.698802,1.677176
2020-11-15 23:12:31.081,1.571548,1.680551,1.694927,1.676676
2020-11-15 23:12:31.098,1.575048,1.682801,1.686426,1.675426
2020-11-15 23:12:31.115,1.573173,1.686676,1.692552,1.674801
2020-11-15 23:12:31.133,1.573798,1.692302,1.692302,1.673051
2020-11-15 23:12:31.150,1.572548,1.690427,1.698052,1.674051
2020-11-15 23:12:31.167,1.569798,1.689927,1.704302,1.674301
2020-11-15 23:12:31.184,1.570298,1.681051,1.698802,1.676926
2020-11-15 23:12:31.201,1.571173,1.682051,1.696177,1.675926
2020-11-15 23:12:31.218,1.573423,1.682926,1.687301,1.675176
2020-11-15 23:12:31.235,1.575423,1.686551,1.691177,1.674426
2020-11-15 23:12:31.252,1.573173,1.695802,1.692302,1.674551
2020-11-15 23:12:31.269,1.571548,1.690552,1.698427,1.674676
2020-11-15 23:12:31.286,1.568548,1.689177,1.700677,1.675051
2020-11-15 23:12:31.303,1.570548,1.679926,1.698552,1.677426
2020-11-15 23:12:31.320,1.571798,1.681926,1.692927,1.675426
2020-11-15 23:12:31.337,1.576548,1.682176,1.688427,1.675676
2020-11-15 23:12:31.354,1.573548,1.686801,1.692552,1.673301
2020-11-15 23:12:31.371,1.573548,1.696052,1.695177,1.674801
2020-11-15 23:12:31.388,1.570798,1.690052,1.705052,1.674676
2020-11-15 23:12:31.405,1.569798,1.686301,1.700302,1.677176
2020-11-15 23:12:31.422,1.570798,1.676801,1.698302,1.675801
2020-11-15 23:12:31.439,1.571298,1.682801,1.690677,1.676426
2020-11-15 23:12:31.456,1.575548,1.684051,1.688677,1.675676
2020-11-15 23:12:31.473,1.573423,1.694177,1.693677,1.674051
2020-11-15 23:12:31.490,1.572673,1.690552,1.699052,1.674426
2020-11-15 23:12:31.507,1.569923,1.690052,1.702427,1.674301
2020-11-15 23:12:31.524,1.571048,1.685176,1.699427,1.676551
2020-11-15 23:12:31.541,1.570673,1.676051,1.696052,1.675926
2020-11-15 23:12:31.558,1.573923,1.682176,1.687051,1.675676
2020-11-15 23:12:31.575,1.574548,1.687802,1.692052,1.674676
2020-11-15 23:12:31.592,1.573298,1.696427,1.692927,1.674926
2020-11-15 23:12:31.609,1.572173,1.690177,1.700677,1.674551
2020-11-15 23:12:31.626,1.569423,1.688677,1.701802,1.675676
2020-11-15 23:12:31.643,1.569798,1.679301,1.698677,1.677051
2020-11-15 23:12:31.660,1.570798,1.682426,1.694677,1.675801
2020-11-15 23:12:31.677,1.573923,1.683301,1.689302,1.674926
2020-11-15 23:12:31.694,1.573548,1.688302,1.692677,1.674301
2020-11-15 23:12:31.711,1.573673,1.696302,1.696302,1.674176
2020-11-15 23:12:31.728,1.570798,1.689677,1.705552,1.674801
2020-11-15 23:12:31.745,1.570798,1.687927,1.699427,1.674676
2020-11-15 23:12:31.762,1.570548,1.678551,1.698552,1.676676
2020-11-15 23:12:31.779,1.572673,1.681801,1.690302,1.675676
2020-11-15 23:12:31.796,1.576298,1.685176,1.691052,1.675051
2020-11-15 23:12:31.813,1.573298,1.693302,1.692552,1.673801
2020-11-15 23:12:31.830,1.573423,1.691177,1.696302,1.675176
2020-11-15 23:12:31.847,1.570548,1.689177,1.705427,1.674926
2020-11-15 23:12:31.864,1.569923,1.684426,1.699052,1.677176
2020-11-15 23:12:31.881,1.570923,1.677801,1.695927,1.675801
2020-11-15 23:12:31.898,1.574298,1.682801,1.686301,1.675676
2020-11-15 23:12:31.915,1.573923,1.684676,1.692052,1.674926
2020-11-15 23:12:31.932,1.573548,1.695052,1.693552,1.673801
2020-11-15 23:12:31.949,1.572298,1.692177,1.696927,1.674176
2020-11-15 23:12:31.967,1.570173,1.689552,1.706302,1.674551
2020-11-15 23:12:31.984,1.571048,1.686676,1.698927,1.677051
2020-11-15 23:12:32.001,1.571173,1.679301,1.698302,1.676301
2020-11-15 23:12:32.018,1.572048,1.683051,1.688927,1.675926
2020-11-15 23:12:32.035,1.576048,1.685676,1.691427,1.674926
2020-11-15 23:12:32.052,1.573048,1.694927,1.691927,1.674176
2020-11-15 23:12:32.069,1.572298,1.690677,1.697052,1.674301
2020-11-15 23:12:32.086,1.569423,1.689677,1.705052,1.675426
2020-11-15 23:12:32.103,1.570298,1.682051,1.699177,1.677426
2020-11-15 23:12:32.120,1.570423,1.679926,1.694677,1.676176
2020-11-15 23:12:32.137,1.575173,1.682926,1.686051,1.675801
2020-11-15 23:12:32.154,1.573798,1.686426,1.692427,1.674301
2020-11-15 23:12:32.171,1.573173,1.695677,1.694802,1.673926
2020-11-15 23:12:32.188,1.571923,1.690177,1.703677,1.674051
2020-11-15 23:12:32.205,1.569048,1.689177,1.699927,1.676301
2020-11-15 23:12:32.222,1.571423,1.678176,1.698677,1.676301
2020-11-15 23:12:32.239,1.571923,1.682301,1.693802,1.675926
2020-11-15 23:12:32.256,1.576048,1.683176,1.686051,1.675051
2020-11-15 23:12:32.273,1.573923,1.690927,1.691802,1.673176
2020-11-15 23:12:32.290,1.573048,1.691802,1.693927,1.675051
2020-11-15 23:12:32.307,1.570298,1.689927,1.705052,1.674551
2020-11-15 23:12:32.324,1.569298,1.686426,1.699177,1.676051
2020-11-15 23:12:32.341,1.570048,1.677051,1.698177,1.676426
2020-11-15 23:12:32.358,1.571298,1.682801,1.692052,1.675926
2020-11-15 23:12:32.375,1.574923,1.683426,1.687301,1.675301
2020-11-15 23:12:32.392,1.573298,1.692927,1.692927,1.673426
2020-11-15 23:12:32.409,1.572798,1.691177,1.699302,1.674176
2020-11-15 23:12:32.426,1.570048,1.689677,1.704427,1.675051
2020-11-15 23:12:32.443,1.571173,1.686176,1.699427,1.676676
2020-11-15 23:12:32.460,1.571673,1.676426,1.696552,1.675551
2020-11-15 23:12:32.477,1.573173,1.682676,1.687176,1.675426
2020-11-15 23:12:32.494,1.576048,1.683426,1.691302,1.674301
2020-11-15 23:12:32.511,1.573298,1.696302,1.692427,1.673926
2020-11-15 23:12:32.528,1.572298,1.689802,1.699552,1.674926
2020-11-15 23:12:32.545,1.569673,1.688927,1.702052,1.675176
2020-11-15 23:12:32.562,1.570423,1.679551,1.698552,1.677176
2020-11-15 23:12:32.579,1.571423,1.682426,1.695177,1.675801
2020-11-15 23:12:32.596,1.573923,1.683176,1.688802,1.675926
2020-11-15 23:12:32.613,1.573423,1.687301,1.692302,1.674676
2020-11-15 23:12:32.630,1.573173,1.696302,1.695302,1.674301
2020-11-15 23:12:32.647,1.570298,1.689677,1.704552,1.673926
2020-11-15 23:12:32.664,1.569673,1.687802,1.700427,1.674426
2020-11-15 23:12:32.681,1.570798,1.678551,1.698552,1.676926
2020-11-15 23:12:32.698,1.571923,1.682426,1.691427,1.676426
2020-11-15 23:12:32.715,1.575548,1.683801,1.689552,1.674926
2020-11-15 23:12:32.732,1.573798,1.693427,1.692552,1.673676
2020-11-15 23:12:32.749,1.573048,1.691177,1.695177,1.674176
2020-11-15 23:12:32.766,1.570048,1.689552,1.704802,1.673676
2020-11-15 23:12:32.784,1.569423,1.688427,1.699552,1.675426
2020-11-15 23:12:32.801,1.570673,1.678801,1.698552,1.676926
2020-11-15 23:12:32.818,1.572173,1.681676,1.690677,1.675301
2020-11-15 23:12:32.835,1.576173,1.682676,1.690927,1.675551
2020-11-15 23:12:32.852,1.573673,1.689177,1.692677,1.673801
2020-11-15 23:12:32.869,1.573298,1.694177,1.697177,1.673801
2020-11-15 23:12:32.886,1.570673,1.689302,1.705802,1.675301
2020-11-15 23:12:32.903,1.570423,1.683926,1.699552,1.676426
2020-11-15 23:12:32.920,1.571173,1.678176,1.697677,1.675926
2020-11-15 23:12:32.937,1.571923,1.682551,1.689302,1.675926
2020-11-15 23:12:32.954,1.576298,1.685051,1.690802,1.674676
2020-11-15 23:12:32.971,1.573173,1.694802,1.692052,1.674176
2020-11-15 23:12:32.988,1.572173,1.690427,1.701802,1.674176
2020-11-15 23:12:33.005,1.569423,1.689677,1.700302,1.674926
2020-11-15 23:12:33.022,1.570923,1.682801,1.699177,1.676676
2020-11-15 23:12:33.039,1.571298,1.678551,1.694927,1.676176
2020-11-15 23:12:33.056,1.573923,1.682551,1.686176,1.676801
2020-11-15 23:12:33.073,1.574298,1.686051,1.692302,1.673676
2020-11-15 23:12:33.090,1.573798,1.694927,1.693302,1.674426
2020-11-15 23:12:33.107,1.571673,1.690177,1.703177,1.675051
2020-11-15 23:12:33.124,1.569423,1.686926,1.699802,1.675426
2020-11-15 23:12:33.141,1.570798,1.677926,1.698677,1.676801
2020-11-15 23:12:33.158,1.571173,1.681926,1.693802,1.675926
2020-11-15 23:12:33.175,1.574923,1.683176,1.685176,1.674551
2020-11-15 23:12:33.192,1.573548,1.689677,1.692302,1.673926
2020-11-15 23:12:33.209,1.572048,1.693302,1.697427,1.674551
2020-11-15 23:12:33.226,1.570923,1.689802,1.706177,1.674051
2020-11-15 23:12:33.243,1.570548,1.686426,1.699802,1.675676
2020-11-15 23:12:33.260,1.570548,1.677176,1.697927,1.676051
2020-11-15 23:12:33.277,1.572673,1.682176,1.688552,1.675176
2020-11-15 23:12:33.294,1.576423,1.686426,1.691177,1.674926
2020-11-15 23:12:33.311,1.573923,1.695177,1.692802,1.674801
2020-11-15 23:12:33.328,1.572548,1.690427,1.697677,1.674551
2020-11-15 23:12:33.345,1.570048,1.689302,1.704427,1.675426
2020-11-15 23:12:33.362,1.570173,1.681926,1.698927,1.676676
2020-11-15 23:12:33.379,1.570548,1.680676,1.696052,1.676176
2020-11-15 23:12:33.396,1.573173,1.683051,1.687051,1.675301
2020-11-15 23:12:33.413,1.575173,1.686426,1.692302,1.673676
2020-11-15 23:12:33.430,1.573798,1.696052,1.694427,1.674176
2020-11-15 23:12:33.447,1.570923,1.690927,1.704177,1.674676
2020-11-15 23:12:33.463,1.569548,1.688802,1.700552,1.674926
2020-11-15 23:12:33.480,1.570798,1.679676,1.698802,1.676926
2020-11-15 23:12:33.498,1.571798,1.681426,1.693552,1.675551
2020-11-15 23:12:33.515,1.575673,1.683176,1.687176,1.675176
2020-11-15 23:12:33.531,1.573798,1.691677,1.692427,1.674301
2020-11-15 23:12:33.549,1.573173,1.691677,1.695177,1.674176
2020-11-15 23:12:33.566,1.571298,1.689677,1.703802,1.674176
2020-11-15 23:12:33.583,1.569298,1.685801,1.699427,1.676176
2020-11-15 23:12:33.599,1.570173,1.678426,1.698552,1.677051
2020-11-15 23:12:33.618,1.570798,1.682551,1.695177,1.675676
2020-11-15 23:12:33.635,1.574173,1.683051,1.686301,1.675676
2020-11-15 23:12:33.652,1.573798,1.687927,1.692427,1.673926
2020-11-15 23:12:33.669,1.573048,1.696302,1.695677,1.673926
2020-11-15 23:12:33.686,1.570548,1.689677,1.704927,1.674301
2020-11-15 23:12:33.703,1.569923,1.687802,1.700052,1.675426
2020-11-15 23:12:33.720,1.570173,1.678301,1.698927,1.676801
2020-11-15 23:12:33.737,1.571673,1.681301,1.690927,1.675801
2020-11-15 23:12:33.754,1.576423,1.684176,1.690052,1.675676
2020-11-15 23:12:33.771,1.573673,1.694302,1.692677,1.674051
2020-11-15 23:12:33.788,1.572798,1.691177,1.695302,1.674426
2020-11-15 23:12:33.805,1.570298,1.689802,1.705427,1.675301
2020-11-15 23:12:33.822,1.569798,1.685176,1.699052,1.676801
2020-11-15 23:12:33.839,1.570173,1.677801,1.697302,1.676301
2020-11-15 23:12:33.856,1.572298,1.682801,1.689427,1.676426
2020-11-15 23:12:33.873,1.576048,1.685051,1.692677,1.674426
2020-11-15 23:12:33.890,1.573173,1.694802,1.693427,1.673676
2020-11-15 23:12:33.907,1.572423,1.690927,1.701427,1.673676
2020-11-15 23:12:33.924,1.569798,1.689177,1.701177,1.674426
2020-11-15 23:12:33.941,1.570423,1.683551,1.699552,1.676801
2020-11-15 23:12:33.958,1.571548,1.677926,1.695427,1.674926
2020-11-15 23:12:33.975,1.575173,1.682426,1.685551,1.675551
2020-11-15 23:12:33.992,1.573673,1.688927,1.692427,1.673926
2020-11-15 23:12:34.009,1.573298,1.694802,1.693177,1.674676
2020-11-15 23:12:34.026,1.571673,1.690052,1.702677,1.674801
2020-11-15 23:12:34.043,1.569423,1.688052,1.700177,1.675926
2020-11-15 23:12:34.060,1.569423,1.678301,1.698177,1.676801
2020-11-15 23:12:34.077,1.570673,1.682426,1.694052,1.675801
2020-11-15 23:12:34.094,1.575048,1.683676,1.684926,1.675801
2020-11-15 23:12:34.111,1.573798,1.690177,1.692802,1.673801
2020-11-15 23:12:34.128,1.572673,1.694427,1.696552,1.674176
2020-11-15 23:12:34.145,1.570048,1.689927,1.706302,1.675051
2020-11-15 23:12:34.162,1.570798,1.686926,1.699177,1.675301
2020-11-15 23:12:34.179,1.571298,1.676801,1.698052,1.676176
2020-11-15 23:12:34.196,1.573048,1.682051,1.689052,1.675301
2020-11-15 23:12:34.213,1.576048,1.683051,1.690927,1.674551
2020-11-15 23:12:34.230,1.573548,1.695052,1.693302,1.674176
2020-11-15 23:12:34.247,1.572423,1.691177,1.697677,1.675051
2020-11-15 23:12:34.264,1.569923,1.689677,1.705427,1.675426
2020-11-15 23:12:34.281,1.570048,1.682176,1.698927,1.676676
2020-11-15 23:12:34.298,1.570923,1.680301,1.696927,1.675926
2020-11-15 23:12:34.315,1.572298,1.683176,1.687927,1.675801
2020-11-15 23:12:34.332,1.575923,1.686301,1.692302,1.674301
2020-11-15 23:12:34.349,1.572798,1.695677,1.694677,1.674551
2020-11-15 23:12:34.366,1.571673,1.690802,1.704302,1.674551
2020-11-15 23:12:34.383,1.568798,1.689052,1.700052,1.674926
2020-11-15 23:12:34.400,1.570673,1.681051,1.699052,1.676176
2020-11-15 23:12:34.417,1.571048,1.681051,1.693802,1.675426
2020-11-15 23:12:34.435,1.571923,1.682051,1.687677,1.675426
2020-11-15 23:12:34.452,1.575673,1.682426,1.691052,1.674801
2020-11-15 23:12:34.469,1.573173,1.696802,1.693427,1.674926
2020-11-15 23:12:34.486,1.572298,1.690677,1.699427,1.674801
2020-11-15 23:12:34.503,1.569673,1.689427,1.702802,1.675801
2020-11-15 23:12:34.520,1.569548,1.679926,1.698802,1.677051
2020-11-15 23:12:34.537,1.570048,1.682176,1.696052,1.676551
2020-11-15 23:12:34.554,1.573173,1.682926,1.686051,1.676051
2020-11-15 23:12:34.571,1.573798,1.687426,1.692302,1.674426
2020-11-15 23:12:34.588,1.573298,1.696927,1.695052,1.674676
2020-11-15 23:12:34.605,1.570548,1.689802,1.704302,1.674051
2020-11-15 23:12:34.622,1.569923,1.687802,1.700177,1.675176
2020-11-15 23:12:34.639,1.569548,1.678926,1.698427,1.677176
2020-11-15 23:12:34.656,1.569798,1.682176,1.692052,1.675926
2020-11-15 23:12:34.674,1.576048,1.683551,1.690177,1.675301
2020-11-15 23:12:34.690,1.573173,1.687927,1.692552,1.673676
2020-11-15 23:12:34.708,1.572673,1.695552,1.696177,1.674301
2020-11-15 23:12:34.725,1.571048,1.689552,1.705302,1.673801
2020-11-15 23:12:34.741,1.570048,1.687176,1.699802,1.675051
2020-11-15 23:12:34.758,1.569923,1.677551,1.698302,1.676551
2020-11-15 23:12:34.776,1.572423,1.681176,1.690177,1.676176
2020-11-15 23:12:34.793,1.575673,1.685051,1.691177,1.675176
2020-11-15 23:12:34.809,1.573048,1.694552,1.692302,1.674176
2020-11-15 23:12:34.826,1.571798,1.691302,1.696302,1.674801
2020-11-15 23:12:34.843,1.569673,1.689677,1.705552,1.675051
2020-11-15 23:12:34.860,1.570548,1.684301,1.699052,1.677176
2020-11-15 23:12:34.878,1.570423,1.678176,1.696927,1.676051
2020-11-15 23:12:34.895,1.571048,1.683301,1.686676,1.676176
2020-11-15 23:12:34.911,1.574423,1.685426,1.692302,1.674926
2020-11-15 23:12:34.929,1.572923,1.694427,1.693552,1.673926
2020-11-15 23:12:34.945,1.571423,1.690302,1.702302,1.674301
2020-11-15 23:12:34.962,1.569173,1.689927,1.700302,1.674926
2020-11-15 23:12:34.980,1.570298,1.682801,1.699427,1.676801
2020-11-15 23:12:34.997,1.571173,1.678676,1.695052,1.676301
2020-11-15 23:12:35.013,1.575673,1.683551,1.685926,1.676051
2020-11-15 23:12:35.031,1.572923,1.689427,1.691927,1.673926
2020-11-15 23:12:35.048,1.572673,1.693552,1.693427,1.675426
2020-11-15 23:12:35.064,1.571298,1.690552,1.703052,1.674301
2020-11-15 23:12:35.082,1.569548,1.687677,1.700052,1.676301
2020-11-15 23:12:35.099,1.570673,1.677676,1.697677,1.676176
2020-11-15 23:12:35.116,1.572173,1.682551,1.693927,1.675801
2020-11-15 23:12:35.133,1.575048,1.683426,1.691552,1.675051
2020-11-15 23:12:35.150,1.573048,1.690677,1.692802,1.673926
2020-11-15 23:12:35.166,1.572298,1.692552,1.697427,1.674051
2020-11-15 23:12:35.184,1.570298,1.690302,1.706802,1.674801
2020-11-15 23:12:35.201,1.571173,1.686301,1.699552,1.675801
2020-11-15 23:12:35.218,1.570673,1.675676,1.697552,1.675676
2020-11-15 23:12:35.235,1.572798,1.681676,1.688177,1.675426
2020-11-15 23:12:35.251,1.576298,1.683176,1.688677,1.675676
2020-11-15 23:12:35.270,1.573798,1.692052,1.692552,1.673426
2020-11-15 23:12:35.287,1.572923,1.691052,1.695177,1.674676
2020-11-15 23:12:35.304,1.570423,1.690052,1.704302,1.674426
2020-11-15 23:12:35.321,1.570173,1.686051,1.699302,1.676551
2020-11-15 23:12:35.338,1.569923,1.676676,1.698302,1.676176
2020-11-15 23:12:35.355,1.571423,1.682926,1.687802,1.675801
2020-11-15 23:12:35.372,1.575423,1.684051,1.691802,1.674801
2020-11-15 23:12:35.389,1.572548,1.693302,1.692927,1.673551
2020-11-15 23:12:35.406,1.571923,1.691177,1.699427,1.674301
2020-11-15 23:12:35.423,1.568798,1.689677,1.702802,1.674676
2020-11-15 23:12:35.440,1.570673,1.685301,1.699177,1.677051
2020-11-15 23:12:35.457,1.571048,1.682301,1.696552,1.675926
2020-11-15 23:12:35.474,1.573673,1.683176,1.686801,1.675676
2020-11-15 23:12:35.491,1.574798,1.686551,1.691677,1.674926
2020-11-15 23:12:35.508,1.572798,1.695927,1.692802,1.674551
2020-11-15 23:12:35.525,1.571923,1.689927,1.699927,1.674926
2020-11-15 23:12:35.542,1.569173,1.688427,1.701177,1.675301
2020-11-15 23:12:35.559,1.570423,1.679551,1.698802,1.677051
2020-11-15 23:12:35.576,1.571548,1.682301,1.691677,1.675676
2020-11-15 23:12:35.593,1.575548,1.683551,1.689052,1.675926
2020-11-15 23:12:35.610,1.573923,1.687802,1.692302,1.673801
2020-11-15 23:12:35.627,1.572548,1.695052,1.696552,1.673926
2020-11-15 23:12:35.643,1.570298,1.689427,1.705927,1.674926
2020-11-15 23:12:35.660,1.569798,1.685551,1.699927,1.677051
2020-11-15 23:12:35.678,1.570173,1.676551,1.698177,1.675801
2020-11-15 23:12:35.695,1.572548,1.683176,1.690177,1.675801
2020-11-15 23:12:35.711,1.575923,1.684551,1.690677,1.675176
2020-11-15 23:12:35.729,1.573548,1.694802,1.692052,1.674301
2020-11-15 23:12:35.745,1.572423,1.690677,1.695677,1.674551
2020-11-15 23:12:35.762,1.570298,1.690177,1.701177,1.675051
2020-11-15 23:12:35.779,1.570548,1.684551,1.699302,1.676426
2020-11-15 23:12:35.796,1.570173,1.678551,1.695177,1.675801
2020-11-15 23:12:35.813,1.574173,1.682801,1.686176,1.675551
2020-11-15 23:12:35.830,1.573923,1.685426,1.692302,1.673676
2020-11-15 23:12:35.847,1.573423,1.694802,1.693552,1.674426
2020-11-15 23:12:35.864,1.571423,1.689677,1.702677,1.674926
2020-11-15 23:12:35.881,1.569798,1.687677,1.700802,1.676051
2020-11-15 23:12:35.898,1.570548,1.678426,1.699427,1.677426
2020-11-15 23:12:35.915,1.570798,1.682051,1.694927,1.676426
2020-11-15 23:12:35.932,1.574048,1.683926,1.685551,1.675926
2020-11-15 23:12:35.949,1.573173,1.689552,1.692552,1.673676
2020-11-15 23:12:35.966,1.571923,1.693677,1.693052,1.674176
2020-11-15 23:12:35.983,1.571298,1.689552,1.705927,1.674801
2020-11-15 23:12:36.000,1.570423,1.686926,1.699552,1.676301
2020-11-15 23:12:36.017,1.570298,1.677551,1.698677,1.676801
2020-11-15 23:12:36.034,1.571673,1.682051,1.689052,1.676301
2020-11-15 23:12:36.051,1.576798,1.682551,1.691177,1.675051
2020-11-15 23:12:36.068,1.572923,1.690177,1.692177,1.673176
2020-11-15 23:12:36.087,1.572798,1.695677,1.694177,1.674051
2020-11-15 23:12:36.104,1.571048,1.689677,1.703552,1.674426
2020-11-15 23:12:36.121,1.570048,1.688802,1.700177,1.676051
2020-11-15 23:12:36.138,1.570673,1.678051,1.699302,1.676176
2020-11-15 23:12:36.155,1.570798,1.682551,1.692927,1.676051
2020-11-15 23:12:36.172,1.575048,1.684051,1.687677,1.675926
2020-11-15 23:12:36.189,1.573298,1.692302,1.692427,1.674176
2020-11-15 23:12:36.206,1.573548,1.690302,1.695302,1.674301
2020-11-15 23:12:36.223,1.570423,1.690177,1.703802,1.674426
2020-11-15 23:12:36.240,1.570048,1.686926,1.699302,1.676426
2020-11-15 23:12:36.257,1.571173,1.677301,1.696552,1.676301
2020-11-15 23:12:36.274,1.573298,1.682051,1.687802,1.675551
2020-11-15 23:12:36.291,1.575048,1.683926,1.691552,1.674551
2020-11-15 23:12:36.308,1.573548,1.693552,1.692677,1.673051
2020-11-15 23:12:36.325,1.571798,1.689677,1.699802,1.674301
2020-11-15 23:12:36.342,1.569673,1.689177,1.702927,1.675176
2020-11-15 23:12:36.359,1.570798,1.679926,1.699427,1.677051
2020-11-15 23:12:36.376,1.570048,1.682551,1.696302,1.676051
2020-11-15 23:12:36.393,1.573298,1.683426,1.686676,1.676301
2020-11-15 23:12:36.410,1.573923,1.688427,1.690927,1.674676
2020-11-15 23:12:36.427,1.572673,1.696677,1.695552,1.674301
2020-11-15 23:12:36.443,1.570798,1.689927,1.705427,1.674301
2020-11-15 23:12:36.460,1.569423,1.688177,1.699552,1.676051
2020-11-15 23:12:36.477,1.570798,1.678926,1.699177,1.676676
2020-11-15 23:12:36.494,1.571923,1.681801,1.691177,1.675551
2020-11-15 23:12:36.511,1.576048,1.682676,1.690052,1.675051
2020-11-15 23:12:36.528,1.573173,1.688302,1.693177,1.673676
2020-11-15 23:12:36.545,1.573423,1.690927,1.695927,1.674926
2020-11-15 23:12:36.562,1.570048,1.689927,1.705177,1.675176
2020-11-15 23:12:36.579,1.570173,1.684551,1.699427,1.676926
2020-11-15 23:12:36.596,1.570298,1.677051,1.698177,1.676801
2020-11-15 23:12:36.613,1.572298,1.682926,1.689302,1.675551
2020-11-15 23:12:36.630,1.575673,1.684926,1.691927,1.675051
2020-11-15 23:12:36.647,1.572548,1.694927,1.693302,1.673676
2020-11-15 23:12:36.664,1.572048,1.690927,1.701802,1.674676
2020-11-15 23:12:36.681,1.570173,1.689177,1.700052,1.674801
2020-11-15 23:12:36.698,1.570048,1.682926,1.699052,1.676926
2020-11-15 23:12:36.715,1.571423,1.678801,1.695677,1.675676
2020-11-15 23:12:36.732,1.574423,1.682426,1.686176,1.675801
2020-11-15 23:12:36.749,1.574423,1.688802,1.691927,1.674551
2020-11-15 23:12:36.766,1.572798,1.694177,1.693552,1.674801
2020-11-15 23:12:36.783,1.571173,1.690177,1.702677,1.675051
2020-11-15 23:12:36.800,1.569548,1.687551,1.700302,1.675926
2020-11-15 23:12:36.817,1.570548,1.677801,1.698177,1.676551
2020-11-15 23:12:36.834,1.570798,1.681926,1.694052,1.676426
2020-11-15 23:12:36.851,1.574798,1.683176,1.691302,1.675676
2020-11-15 23:12:36.868,1.573048,1.689552,1.692677,1.673301
2020-11-15 23:12:36.885,1.573798,1.692927,1.697302,1.674801
2020-11-15 23:12:36.902,1.570048,1.689927,1.703927,1.674051
2020-11-15 23:12:36.921,1.568798,1.689302,1.701177,1.675176
2020-11-15 23:12:36.938,1.569673,1.681176,1.699177,1.677551
2020-11-15 23:12:36.955,1.570548,1.681301,1.694052,1.675676
2020-11-15 23:12:36.972,1.575673,1.682926,1.687051,1.675426
2020-11-15 23:12:36.989,1.573548,1.686926,1.692677,1.673551
2020-11-15 23:12:37.006,1.573548,1.695802,1.695302,1.674176
2020-11-15 23:12:37.023,1.571548,1.689802,1.704552,1.674301
2020-11-15 23:12:37.040,1.569548,1.688552,1.700302,1.676551
2020-11-15 23:12:37.057,1.570923,1.676926,1.698927,1.676426
2020-11-15 23:12:37.074,1.571923,1.682426,1.692052,1.675801
2020-11-15 23:12:37.091,1.575798,1.683551,1.687677,1.675176
2020-11-15 23:12:37.108,1.573798,1.692927,1.692302,1.673676
2020-11-15 23:12:37.125,1.573798,1.690677,1.695052,1.674426
2020-11-15 23:12:37.142,1.570048,1.689677,1.704052,1.674301
2020-11-15 23:12:37.159,1.569048,1.685676,1.699427,1.676301
2020-11-15 23:12:37.176,1.570173,1.676676,1.696927,1.676176
2020-11-15 23:12:37.193,1.573173,1.683176,1.687426,1.675676
2020-11-15 23:12:37.210,1.574923,1.684176,1.691802,1.675051
2020-11-15 23:12:37.227,1.573423,1.693427,1.693552,1.672926
2020-11-15 23:12:37.244,1.572173,1.691052,1.700677,1.674051
2020-11-15 23:12:37.261,1.569548,1.689927,1.702302,1.674301
2020-11-15 23:12:37.278,1.571173,1.683801,1.698927,1.675801
2020-11-15 23:12:37.295,1.570798,1.676926,1.695677,1.675676
2020-11-15 23:12:37.312,1.573673,1.682551,1.686801,1.675551
2020-11-15 23:12:37.329,1.573923,1.687677,1.691552,1.674301
2020-11-15 23:12:37.346,1.573048,1.696177,1.692927,1.674676
2020-11-15 23:12:37.363,1.571423,1.690302,1.701427,1.675176
2020-11-15 23:12:37.380,1.570048,1.688302,1.700427,1.676051
2020-11-15 23:12:37.397,1.569923,1.678551,1.698552,1.677051
2020-11-15 23:12:37.414,1.570298,1.682301,1.694927,1.675801
2020-11-15 23:12:37.431,1.573923,1.683551,1.690802,1.675426
2020-11-15 23:12:37.448,1.573173,1.688677,1.692427,1.674051
2020-11-15 23:12:37.465,1.573048,1.695177,1.696427,1.673926
2020-11-15 23:12:37.482,1.570048,1.690052,1.706052,1.674551
2020-11-15 23:12:37.499,1.570798,1.687051,1.699802,1.675676
2020-11-15 23:12:37.516,1.569798,1.677801,1.698427,1.676176
2020-11-15 23:12:37.533,1.571673,1.681676,1.689552,1.675426
2020-11-15 23:12:37.550,1.576298,1.685551,1.691552,1.675051
2020-11-15 23:12:37.567,1.573173,1.694677,1.692427,1.674051
2020-11-15 23:12:37.584,1.572173,1.691052,1.697052,1.674676
2020-11-15 23:12:37.601,1.569923,1.689552,1.705552,1.675051
2020-11-15 23:12:37.618,1.570298,1.683301,1.699552,1.677051
2020-11-15 23:12:37.635,1.569798,1.679176,1.696427,1.676426
2020-11-15 23:12:37.652,1.572298,1.683301,1.687802,1.675801
2020-11-15 23:12:37.669,1.573548,1.685926,1.692302,1.673926
2020-11-15 23:12:37.686,1.572923,1.694802,1.693802,1.673676
2020-11-15 23:12:37.703,1.571173,1.690302,1.702802,1.674176
2020-11-15 23:12:37.720,1.568798,1.689802,1.700427,1.674051
2020-11-15 23:12:37.738,1.570423,1.685676,1.698802,1.675801
2020-11-15 23:12:37.755,1.570173,1.676926,1.697302,1.676301
2020-11-15 23:12:37.772,1.571923,1.682051,1.688177,1.675926
2020-11-15 23:12:37.789,1.575423,1.686801,1.691052,1.674301
2020-11-15 23:12:37.806,1.573173,1.696052,1.693177,1.674051
2020-11-15 23:12:37.823,1.572173,1.690427,1.698677,1.675051
2020-11-15 23:12:37.840,1.569173,1.689552,1.703177,1.675176
2020-11-15 23:12:37.857,1.570173,1.680801,1.699302,1.677301
2020-11-15 23:12:37.874,1.569923,1.681801,1.695677,1.675551
2020-11-15 23:12:37.891,1.572173,1.682551,1.686176,1.676176
2020-11-15 23:12:37.908,1.573173,1.686926,1.692927,1.674426
2020-11-15 23:12:37.925,1.572923,1.696302,1.694552,1.674426
2020-11-15 23:12:37.942,1.570673,1.689552,1.704177,1.674426
2020-11-15 23:12:37.959,1.569423,1.688552,1.700052,1.675676
2020-11-15 23:12:37.976,1.571173,1.678926,1.699302,1.677051
2020-11-15 23:12:37.993,1.571048,1.681176,1.692427,1.675426
2020-11-15 23:12:38.010,1.575548,1.682926,1.688927,1.674676
2020-11-15 23:12:38.028,1.574048,1.687426,1.693552,1.673801
2020-11-15 23:12:38.045,1.572798,1.694677,1.695552,1.674676
2020-11-15 23:12:38.062,1.570048,1.689552,1.705302,1.674926
2020-11-15 23:12:38.079,1.570173,1.685176,1.699427,1.676801
2020-11-15 23:12:38.096,1.570673,1.676176,1.698802,1.676176
2020-11-15 23:12:38.113,1.572173,1.683176,1.690927,1.676301
2020-11-15 23:12:38.130,1.576173,1.684426,1.689927,1.674926
2020-11-15 23:12:38.147,1.573173,1.693927,1.692177,1.673926
2020-11-15 23:12:38.164,1.572298,1.691052,1.700802,1.674676
2020-11-15 23:12:38.181,1.569048,1.689552,1.702302,1.674926
2020-11-15 23:12:38.198,1.570673,1.684176,1.698677,1.676551
2020-11-15 23:12:38.215,1.570923,1.677051,1.695552,1.676301
2020-11-15 23:12:38.232,1.574298,1.683051,1.686801,1.675676
2020-11-15 23:12:38.249,1.573548,1.684676,1.692677,1.674176
2020-11-15 23:12:38.265,1.573423,1.696177,1.693802,1.674051
2020-11-15 23:12:38.282,1.572173,1.690052,1.702302,1.674676
2020-11-15 23:12:38.299,1.569548,1.688177,1.699677,1.676051
2020-11-15 23:12:38.316,1.569673,1.678301,1.699052,1.676801
2020-11-15 23:12:38.334,1.570798,1.682051,1.695802,1.676426
2020-11-15 23:12:38.351,1.575048,1.683301,1.685676,1.675801
2020-11-15 23:12:38.368,1.573923,1.689677,1.691802,1.674051
2020-11-15 23:12:38.385,1.572423,1.694677,1.693052,1.674551
2020-11-15 23:12:38.402,1.571548,1.689677,1.702177,1.674676
2020-11-15 23:12:38.419,1.570798,1.687677,1.699677,1.676926
2020-11-15 23:12:38.436,1.570298,1.678676,1.698177,1.676926
2020-11-15 23:12:38.453,1.572798,1.682551,1.688552,1.675801
2020-11-15 23:12:38.470,1.576298,1.682926,1.691177,1.675551
2020-11-15 23:12:38.487,1.573798,1.690052,1.693177,1.673301
2020-11-15 23:12:38.504,1.572173,1.692427,1.696927,1.674301
2020-11-15 23:12:38.521,1.571048,1.689677,1.705677,1.674676
2020-11-15 23:12:38.538,1.570673,1.683176,1.699552,1.677301
2020-11-15 23:12:38.555,1.570673,1.676801,1.698302,1.676676
2020-11-15 23:12:38.573,1.571923,1.682801,1.693427,1.676301
2020-11-15 23:12:38.590,1.575173,1.683176,1.687677,1.675676
2020-11-15 23:12:38.607,1.573673,1.691802,1.692302,1.673801
2020-11-15 23:12:38.624,1.572173,1.691427,1.694427,1.674801
2020-11-15 23:12:38.641,1.570298,1.689677,1.703677,1.675176
2020-11-15 23:12:38.658,1.568923,1.685801,1.699302,1.676801
2020-11-15 23:12:38.675,1.570673,1.676801,1.696927,1.676176
2020-11-15 23:12:38.692,1.572798,1.682426,1.687927,1.675176
2020-11-15 23:12:38.709,1.574923,1.684301,1.691552,1.674801
2020-11-15 23:12:38.726,1.572923,1.692427,1.692677,1.673051
2020-11-15 23:12:38.743,1.572048,1.690302,1.699302,1.674426
2020-11-15 23:12:38.760,1.569173,1.689302,1.703427,1.675301
2020-11-15 23:12:38.777,1.570048,1.680426,1.699552,1.677426
2020-11-15 23:12:38.794,1.569923,1.681926,1.696552,1.676426
2020-11-15 23:12:38.811,1.572923,1.683426,1.686926,1.676301
2020-11-15 23:12:38.828,1.573673,1.687301,1.691052,1.673926
2020-11-15 23:12:38.845,1.572173,1.696802,1.692177,1.674176
2020-11-15 23:12:38.862,1.570798,1.689802,1.704927,1.674926
2020-11-15 23:12:38.879,1.569298,1.688427,1.699802,1.675176
2020-11-15 23:12:38.896,1.570173,1.679176,1.699052,1.676926
2020-11-15 23:12:38.913,1.571673,1.682551,1.692052,1.675551
2020-11-15 23:12:38.930,1.575173,1.683176,1.689177,1.675301
2020-11-15 23:12:38.947,1.573673,1.687176,1.692427,1.673301
2020-11-15 23:12:38.964,1.572298,1.695552,1.695927,1.674676
2020-11-15 23:12:38.981,1.570548,1.689802,1.705677,1.674426
2020-11-15 23:12:38.998,1.568673,1.684801,1.699302,1.676801
2020-11-15 23:12:39.015,1.570423,1.676551,1.698302,1.675926
2020-11-15 23:12:39.032,1.571423,1.682801,1.690302,1.675176
2020-11-15 23:12:39.049,1.575798,1.685176,1.690427,1.674801
2020-11-15 23:12:39.066,1.573173,1.694052,1.692177,1.674301
2020-11-15 23:12:39.083,1.573298,1.691302,1.700927,1.674426
2020-11-15 23:12:39.100,1.570298,1.689927,1.701802,1.674426
2020-11-15 23:12:39.117,1.569923,1.684051,1.699302,1.676676
2020-11-15 23:12:39.134,1.570298,1.677301,1.695427,1.676426
2020-11-15 23:12:39.151,1.573923,1.683551,1.686176,1.675551
2020-11-15 23:12:39.168,1.573423,1.684801,1.692552,1.673926
2020-11-15 23:12:39.185,1.573298,1.694427,1.693427,1.673426
2020-11-15 23:12:39.202,1.571798,1.689552,1.701677,1.675676
2020-11-15 23:12:39.219,1.569548,1.687551,1.699927,1.676051
2020-11-15 23:12:39.236,1.570173,1.682426,1.699177,1.676801
2020-11-15 23:12:39.253,1.570423,1.678926,1.695302,1.675426
2020-11-15 23:12:39.270,1.574923,1.682926,1.685426,1.674801
2020-11-15 23:12:39.287,1.573548,1.685426,1.692552,1.673801
2020-11-15 23:12:39.304,1.573048,1.694302,1.694177,1.674301
2020-11-15 23:12:39.321,1.571048,1.689927,1.702552,1.674926
2020-11-15 23:12:39.338,1.569548,1.687426,1.699427,1.675926
2020-11-15 23:12:39.355,1.570048,1.677551,1.698427,1.676176
2020-11-15 23:12:39.372,1.571173,1.681926,1.694052,1.675176
2020-11-15 23:12:39.391,1.572298,1.683676,1.687677,1.675426
2020-11-15 23:12:39.408,1.575423,1.686426,1.691052,1.674176
2020-11-15 23:12:39.425,1.572423,1.696427,1.692177,1.674426
2020-11-15 23:12:39.442,1.571548,1.690552,1.704427,1.674176
2020-11-15 23:12:39.459,1.568798,1.689177,1.700302,1.674676
2020-11-15 23:12:39.476,1.570548,1.680176,1.698802,1.676426
2020-11-15 23:12:39.493,1.570423,1.681426,1.693552,1.675676
2020-11-15 23:12:39.510,1.575673,1.683676,1.688427,1.675176
2020-11-15 23:12:39.527,1.573548,1.686801,1.691677,1.673676
2020-11-15 23:12:39.544,1.571548,1.691052,1.694927,1.675051
2020-11-15 23:12:39.561,1.570423,1.689552,1.704177,1.674926
2020-11-15 23:12:39.578,1.568923,1.685551,1.700177,1.677051
2020-11-15 23:12:39.595,1.569548,1.676551,1.698552,1.675926
2020-11-15 23:12:39.611,1.570923,1.682676,1.690552,1.675926
2020-11-15 23:12:39.629,1.575173,1.684301,1.688677,1.675051
2020-11-15 23:12:39.646,1.573673,1.693927,1.693052,1.673676
2020-11-15 23:12:39.663,1.571923,1.690552,1.699927,1.674801
2020-11-15 23:12:39.680,1.569423,1.689177,1.702677,1.674551
2020-11-15 23:12:39.696,1.570298,1.684926,1.699177,1.676551
2020-11-15 23:12:39.713,1.569923,1.676426,1.696427,1.675426
2020-11-15 23:12:39.730,1.573798,1.682426,1.686801,1.675801
2020-11-15 23:12:39.747,1.573548,1.688052,1.691927,1.674051
2020-11-15 23:12:39.764,1.572923,1.696927,1.693302,1.674551
2020-11-15 23:12:39.781,1.571423,1.689427,1.700677,1.674551
2020-11-15 23:12:39.798,1.568673,1.688177,1.700302,1.674676
2020-11-15 23:12:39.815,1.570298,1.679676,1.698177,1.676676
2020-11-15 23:12:39.832,1.569298,1.682176,1.691302,1.675676
2020-11-15 23:12:39.849,1.575548,1.683426,1.690052,1.675176
2020-11-15 23:12:39.866,1.573923,1.688177,1.692302,1.673801
2020-11-15 23:12:39.883,1.573173,1.694802,1.696552,1.674301
2020-11-15 23:12:39.900,1.570298,1.689552,1.705052,1.674551
2020-11-15 23:12:39.917,1.570423,1.686926,1.699302,1.675801
2020-11-15 23:12:39.934,1.570548,1.676801,1.698052,1.676426
2020-11-15 23:12:39.951,1.571798,1.683051,1.690052,1.676176
2020-11-15 23:12:39.968,1.576548,1.685426,1.691052,1.674801
2020-11-15 23:12:39.985,1.573048,1.694677,1.692677,1.673926
2020-11-15 23:12:40.002,1.571673,1.690802,1.696177,1.674301
2020-11-15 23:12:40.019,1.569173,1.690052,1.705302,1.675301
2020-11-15 23:12:40.036,1.569298,1.683801,1.698802,1.677051
2020-11-15 23:12:40.053,1.570173,1.678926,1.695552,1.676051
2020-11-15 23:12:40.070,1.574548,1.682551,1.685926,1.675926
2020-11-15 23:12:40.087,1.573173,1.685176,1.692552,1.674301
2020-11-15 23:12:40.104,1.573298,1.695177,1.694052,1.673801
2020-11-15 23:12:40.121,1.570923,1.690427,1.702802,1.673551
2020-11-15 23:12:40.138,1.569173,1.689052,1.700177,1.674051
2020-11-15 23:12:40.155,1.570423,1.681801,1.699177,1.676801
2020-11-15 23:12:40.172,1.570423,1.682426,1.694302,1.676051
2020-11-15 23:12:40.189,1.574923,1.683426,1.686051,1.675676
2020-11-15 23:12:40.206,1.573298,1.686051,1.691427,1.674301
2020-11-15 23:12:40.224,1.572173,1.695677,1.692177,1.674301
2020-11-15 23:12:40.241,1.572048,1.690552,1.698552,1.674926
2020-11-15 23:12:40.259,1.568798,1.689927,1.703552,1.675051
2020-11-15 23:12:40.276,1.570298,1.681176,1.697802,1.677426
2020-11-15 23:12:40.293,1.569423,1.682051,1.693677,1.675676
2020-11-15 23:12:40.309,1.575423,1.683051,1.687677,1.675301
2020-11-15 23:12:40.326,1.573423,1.687426,1.692802,1.674426
2020-11-15 23:12:40.343,1.573298,1.696552,1.695302,1.674551
2020-11-15 23:12:40.360,1.571173,1.690302,1.705052,1.673676
2020-11-15 23:12:40.377,1.569923,1.687426,1.700302,1.676426
2020-11-15 23:12:40.394,1.570048,1.676801,1.698802,1.676176
2020-11-15 23:12:40.411,1.570673,1.683426,1.691802,1.675676
2020-11-15 23:12:40.428,1.575923,1.683926,1.688802,1.675301
2020-11-15 23:12:40.445,1.573298,1.693302,1.691927,1.673301
2020-11-15 23:12:40.462,1.573173,1.691177,1.694677,1.674551
2020-11-15 23:12:40.479,1.570048,1.690052,1.702927,1.674676
2020-11-15 23:12:40.496,1.570923,1.685926,1.699427,1.676551
2020-11-15 23:12:40.513,1.570298,1.675801,1.696302,1.676176
2020-11-15 23:12:40.530,1.573173,1.682801,1.686801,1.675426
2020-11-15 23:12:40.547,1.574548,1.684301,1.691802,1.674676
2020-11-15 23:12:40.564,1.573798,1.694427,1.692552,1.672926
2020-11-15 23:12:40.581,1.572423,1.690052,1.700927,1.674176
2020-11-15 23:12:40.598,1.569173,1.688302,1.700552,1.675551
2020-11-15 23:12:40.615,1.570048,1.679051,1.699552,1.677926
2020-11-15 23:12:40.632,1.570173,1.682176,1.695177,1.675801
2020-11-15 23:12:40.649,1.573548,1.683551,1.685551,1.674801
2020-11-15 23:12:40.666,1.572423,1.687802,1.691427,1.674176
2020-11-15 23:12:40.683,1.572173,1.695552,1.693052,1.674426
2020-11-15 23:12:40.700,1.570298,1.689802,1.705677,1.674801
2020-11-15 23:12:40.717,1.570673,1.687802,1.699552,1.675551
2020-11-15 23:12:40.734,1.570423,1.677926,1.698677,1.676301
2020-11-15 23:12:40.751,1.572423,1.682051,1.690302,1.675676
2020-11-15 23:12:40.768,1.576548,1.683426,1.691802,1.674551
2020-11-15 23:12:40.785,1.572798,1.689052,1.692677,1.673801
2020-11-15 23:12:40.802,1.572423,1.691052,1.696677,1.674551
2020-11-15 23:12:40.819,1.569048,1.689552,1.705802,1.674801
2020-11-15 23:12:40.836,1.569923,1.683551,1.699177,1.676801
2020-11-15 23:12:40.853,1.570548,1.678926,1.697302,1.676551
2020-11-15 23:12:40.870,1.572173,1.683801,1.688177,1.675426
2020-11-15 23:12:40.887,1.576548,1.685051,1.692302,1.674676
2020-11-15 23:12:40.904,1.573548,1.694927,1.693677,1.674676
2020-11-15 23:12:40.921,1.571548,1.690177,1.703427,1.675051
2020-11-15 23:12:40.938,1.568673,1.689677,1.700552,1.675051
2020-11-15 23:12:40.955,1.571048,1.682051,1.698802,1.676051
2020-11-15 23:12:40.972,1.571173,1.679676,1.693927,1.675676
2020-11-15 23:12:40.989,1.575298,1.682551,1.686426,1.675426
2020-11-15 23:12:41.006,1.573048,1.690052,1.692677,1.674426
2020-11-15 23:12:41.023,1.572798,1.693052,1.693552,1.672926
2020-11-15 23:12:41.041,1.571048,1.690427,1.698302,1.674426
2020-11-15 23:12:41.058,1.569673,1.689302,1.704302,1.675676
2020-11-15 23:12:41.075,1.569798,1.680676,1.699052,1.677426
2020-11-15 23:12:41.092,1.570173,1.681551,1.696177,1.675801
2020-11-15 23:12:41.109,1.572423,1.683301,1.687551,1.675051
2020-11-15 23:12:41.126,1.573423,1.686926,1.692677,1.674176
2020-11-15 23:12:41.143,1.572548,1.696302,1.694927,1.674551
2020-11-15 23:12:41.160,1.571048,1.689427,1.704427,1.674176
2020-11-15 23:12:41.177,1.569548,1.688552,1.700302,1.674926
2020-11-15 23:12:41.194,1.570173,1.678801,1.698802,1.676676
2020-11-15 23:12:41.211,1.571173,1.681301,1.691802,1.676426
2020-11-15 23:12:41.228,1.575048,1.684051,1.688677,1.674801
2020-11-15 23:12:41.245,1.572798,1.693427,1.691552,1.673176
2020-11-15 23:12:41.262,1.572673,1.691302,1.695552,1.675176
2020-11-15 23:12:41.279,1.569923,1.689927,1.704052,1.675551
2020-11-15 23:12:41.296,1.569423,1.685551,1.699677,1.677051
2020-11-15 23:12:41.313,1.570548,1.676551,1.697302,1.676051
2020-11-15 23:12:41.330,1.570798,1.682801,1.687551,1.676051
2020-11-15 23:12:41.347,1.574548,1.684301,1.691802,1.674301
2020-11-15 23:12:41.364,1.573173,1.693802,1.693052,1.673676
2020-11-15 23:12:41.381,1.571173,1.690677,1.700677,1.673926
2020-11-15 23:12:41.398,1.569673,1.689552,1.701677,1.674426
2020-11-15 23:12:41.415,1.569673,1.683551,1.698677,1.676551
2020-11-15 23:12:41.432,1.570048,1.682176,1.695927,1.675301
2020-11-15 23:12:41.449,1.574298,1.683051,1.686426,1.675801
2020-11-15 23:12:41.466,1.572548,1.688427,1.692052,1.674051
2020-11-15 23:12:41.483,1.572173,1.695677,1.692302,1.674926
2020-11-15 23:12:41.500,1.571548,1.690177,1.701927,1.675051
2020-11-15 23:12:41.517,1.568673,1.687426,1.699802,1.676176
2020-11-15 23:12:41.534,1.570173,1.678301,1.698927,1.676926
2020-11-15 23:12:41.551,1.570548,1.681926,1.694427,1.675426
2020-11-15 23:12:41.568,1.574798,1.683176,1.685801,1.675426
2020-11-15 23:12:41.585,1.573173,1.689427,1.692052,1.673801
2020-11-15 23:12:41.602,1.571923,1.693552,1.693177,1.673926
2020-11-15 23:12:41.619,1.570298,1.689552,1.705802,1.674426
2020-11-15 23:12:41.636,1.570173,1.686926,1.699552,1.675801
2020-11-15 23:12:41.653,1.569923,1.677551,1.697677,1.675676
2020-11-15 23:12:41.670,1.572173,1.682051,1.688802,1.674926
2020-11-15 23:12:41.687,1.575923,1.683426,1.691677,1.675301
2020-11-15 23:12:41.704,1.572923,1.690302,1.692052,1.673301
2020-11-15 23:12:41.721,1.572298,1.691927,1.698052,1.674426
2020-11-15 23:12:41.738,1.569923,1.689677,1.705052,1.674801
2020-11-15 23:12:41.755,1.570173,1.682176,1.698677,1.676676
2020-11-15 23:12:41.772,1.569798,1.679801,1.697427,1.675926
2020-11-15 23:12:41.789,1.572298,1.683051,1.687927,1.675551
2020-11-15 23:12:41.806,1.575298,1.687176,1.691427,1.674676
2020-11-15 23:12:41.823,1.572173,1.696177,1.692302,1.674176
2020-11-15 23:12:41.840,1.571548,1.690177,1.698052,1.674676
2020-11-15 23:12:41.857,1.569548,1.688802,1.704552,1.674676
2020-11-15 23:12:41.876,1.568798,1.685676,1.699552,1.676926
2020-11-15 23:12:41.893,1.570298,1.676301,1.696302,1.675551
2020-11-15 23:12:41.910,1.573298,1.682926,1.687551,1.675801
2020-11-15 23:12:41.927,1.574673,1.683926,1.691802,1.674801
2020-11-15 23:12:41.944,1.572548,1.693177,1.692552,1.673176
2020-11-15 23:12:41.961,1.571923,1.690052,1.699927,1.673551
2020-11-15 23:12:41.978,1.568923,1.689052,1.702552,1.675926
2020-11-15 23:12:41.995,1.569548,1.678926,1.698802,1.676926
2020-11-15 23:12:42.012,1.570173,1.682301,1.695552,1.676301
2020-11-15 23:12:42.029,1.573423,1.683176,1.686801,1.675926
2020-11-15 23:12:42.046,1.573923,1.688427,1.691552,1.673926
2020-11-15 23:12:42.063,1.572673,1.696302,1.692677,1.674926
2020-11-15 23:12:42.080,1.571548,1.690427,1.700802,1.674801
2020-11-15 23:12:42.097,1.568548,1.687802,1.699677,1.676551
2020-11-15 23:12:42.114,1.570673,1.678301,1.699177,1.677176
2020-11-15 23:12:42.131,1.570298,1.682176,1.690302,1.676051
2020-11-15 23:12:42.148,1.575923,1.683051,1.690427,1.675176
2020-11-15 23:12:42.165,1.572798,1.688302,1.692302,1.674176
2020-11-15 23:12:42.182,1.572298,1.694427,1.696302,1.674551
2020-11-15 23:12:42.199,1.569548,1.690052,1.706052,1.674176
2020-11-15 23:12:42.216,1.569798,1.687301,1.699802,1.675426
2020-11-15 23:12:42.233,1.570423,1.677926,1.698927,1.676051
2020-11-15 23:12:42.250,1.571548,1.683676,1.689052,1.675676
2020-11-15 23:12:42.267,1.575923,1.685551,1.690302,1.674051
2020-11-15 23:12:42.284,1.572673,1.695552,1.692552,1.674301
2020-11-15 23:12:42.301,1.571798,1.690677,1.696552,1.674301
2020-11-15 23:12:42.318,1.569423,1.689802,1.706052,1.675051
2020-11-15 23:12:42.335,1.569673,1.683051,1.698802,1.677176
2020-11-15 23:12:42.352,1.569923,1.679551,1.695177,1.676426
2020-11-15 23:12:42.369,1.571548,1.682926,1.685551,1.676301
2020-11-15 23:12:42.386,1.573298,1.685676,1.692177,1.674801
2020-11-15 23:12:42.403,1.573048,1.696052,1.693802,1.673676
2020-11-15 23:12:42.420,1.571173,1.690052,1.703177,1.673676
2020-11-15 23:12:42.437,1.569173,1.689427,1.700177,1.674676
2020-11-15 23:12:42.454,1.569798,1.680801,1.699427,1.676676
2020-11-15 23:12:42.471,1.570798,1.680426,1.693802,1.675801
2020-11-15 23:12:42.488,1.574798,1.683301,1.687176,1.675926
2020-11-15 23:12:42.505,1.573423,1.691677,1.692302,1.673926
2020-11-15 23:12:42.522,1.572173,1.692302,1.694177,1.674926
2020-11-15 23:12:42.539,1.571298,1.689927,1.703927,1.674801
2020-11-15 23:12:42.556,1.568923,1.686426,1.699552,1.676176
2020-11-15 23:12:42.573,1.569048,1.677051,1.698177,1.675676
2020-11-15 23:12:42.590,1.570798,1.682551,1.691552,1.676176
2020-11-15 23:12:42.607,1.575173,1.684176,1.691302,1.675426
2020-11-15 23:12:42.624,1.572548,1.692802,1.693427,1.673926
2020-11-15 23:12:42.641,1.572173,1.691052,1.699302,1.674801
2020-11-15 23:12:42.658,1.569673,1.689552,1.703427,1.674301
2020-11-15 23:12:42.675,1.570673,1.684926,1.699552,1.674301
2020-11-15 23:12:42.693,1.570923,1.678426,1.699052,1.677176
2020-11-15 23:12:42.710,1.571298,1.681426,1.691052,1.676051
2020-11-15 23:12:42.727,1.576298,1.682926,1.690802,1.675051
2020-11-15 23:12:42.744,1.572798,1.694552,1.692552,1.674301
2020-11-15 23:12:42.761,1.572048,1.691302,1.696177,1.674176
2020-11-15 23:12:42.778,1.569798,1.690177,1.706177,1.675176
2020-11-15 23:12:42.795,1.570048,1.685051,1.699427,1.677301
2020-11-15 23:12:42.812,1.569923,1.678176,1.697927,1.676426
2020-11-15 23:12:42.829,1.570923,1.683176,1.686676,1.675926
2020-11-15 23:12:42.846,1.573673,1.685551,1.691927,1.675051
2020-11-15 23:12:42.863,1.572548,1.695052,1.693302,1.673801
2020-11-15 23:12:42.880,1.571923,1.690802,1.702427,1.674301
2020-11-15 23:12:42.897,1.568423,1.689552,1.700677,1.674926
2020-11-15 23:12:42.914,1.571048,1.682676,1.698927,1.676301
2020-11-15 23:12:42.931,1.570673,1.679176,1.695552,1.675801
2020-11-15 23:12:42.948,1.574548,1.683426,1.686301,1.675801
2020-11-15 23:12:42.965,1.573548,1.690177,1.692177,1.673551
2020-11-15 23:12:42.982,1.573173,1.694052,1.693552,1.674551
2020-11-15 23:12:42.999,1.571173,1.690052,1.703302,1.675301
2020-11-15 23:12:43.016,1.568923,1.686551,1.699927,1.676301
2020-11-15 23:12:43.033,1.570173,1.678176,1.698802,1.677176
2020-11-15 23:12:43.050,1.572673,1.682301,1.688927,1.676301
2020-11-15 23:12:43.067,1.575673,1.683051,1.691177,1.674801
2020-11-15 23:12:43.084,1.572548,1.690802,1.693302,1.673551
2020-11-15 23:12:43.101,1.572673,1.691552,1.697677,1.674676
2020-11-15 23:12:43.118,1.570298,1.689677,1.706177,1.674176
2020-11-15 23:12:43.135,1.570298,1.685676,1.699677,1.676801
2020-11-15 23:12:43.152,1.570048,1.680676,1.697177,1.676176
2020-11-15 23:12:43.169,1.573673,1.682926,1.688177,1.676176
2020-11-15 23:12:43.186,1.575673,1.686426,1.691552,1.674301
2020-11-15 23:12:43.203,1.573048,1.696177,1.692427,1.674801
2020-11-15 23:12:43.220,1.572173,1.690677,1.698677,1.674676
2020-11-15 23:12:43.237,1.568423,1.689052,1.700552,1.675801
2020-11-15 23:12:43.254,1.570548,1.680676,1.699427,1.677551
2020-11-15 23:12:43.271,1.571173,1.682051,1.693302,1.675551
2020-11-15 23:12:43.288,1.574923,1.683051,1.687802,1.675176
2020-11-15 23:12:43.305,1.573048,1.687176,1.693177,1.674176
2020-11-15 23:12:43.322,1.573048,1.695927,1.695427,1.674051
2020-11-15 23:12:43.339,1.570798,1.689177,1.704802,1.674801
2020-11-15 23:12:43.356,1.570173,1.686801,1.700427,1.676301
2020-11-15 23:12:43.373,1.569923,1.676676,1.698427,1.676051
2020-11-15 23:12:43.390,1.571048,1.683176,1.691302,1.675926
2020-11-15 23:12:43.407,1.575923,1.684176,1.689802,1.675676
2020-11-15 23:12:43.424,1.573048,1.693552,1.692302,1.673176
2020-11-15 23:12:43.441,1.571798,1.690677,1.700177,1.673801
2020-11-15 23:12:43.458,1.569298,1.689427,1.703177,1.674676
2020-11-15 23:12:43.475,1.570298,1.685426,1.698927,1.677051
2020-11-15 23:12:43.492,1.570548,1.676676,1.696052,1.676176
2020-11-15 23:12:43.509,1.573548,1.681051,1.690552,1.676176
2020-11-15 23:12:43.527,1.575548,1.683176,1.691427,1.675176
2020-11-15 23:12:43.544,1.573423,1.689177,1.693177,1.672926
2020-11-15 23:12:43.561,1.572298,1.691302,1.697052,1.674801
2020-11-15 23:12:43.578,1.569548,1.690552,1.705802,1.675176
2020-11-15 23:12:43.595,1.570048,1.684176,1.699177,1.677426
2020-11-15 23:12:43.612,1.570548,1.678926,1.697677,1.676051
2020-11-15 23:12:43.629,1.570923,1.683051,1.688052,1.675551
2020-11-15 23:12:43.646,1.575923,1.685676,1.692177,1.675051
2020-11-15 23:12:43.663,1.572923,1.695927,1.693427,1.674426
2020-11-15 23:12:43.680,1.571923,1.690927,1.703302,1.674801
2020-11-15 23:12:43.697,1.569173,1.688802,1.700552,1.675426
2020-11-15 23:12:43.714,1.570298,1.681926,1.699427,1.676426
2020-11-15 23:12:43.731,1.571048,1.680051,1.694927,1.675676
2020-11-15 23:12:43.748,1.575423,1.683801,1.685801,1.675176
2020-11-15 23:12:43.765,1.572923,1.690927,1.692677,1.673676
2020-11-15 23:12:43.782,1.572798,1.693552,1.694302,1.674551
2020-11-15 23:12:43.799,1.571048,1.690177,1.703052,1.674801
2020-11-15 23:12:43.816,1.568798,1.686551,1.699302,1.675926
2020-11-15 23:12:43.833,1.570298,1.677301,1.698927,1.676676
2020-11-15 23:12:43.850,1.570798,1.682176,1.693677,1.676051
2020-11-15 23:12:43.867,1.574798,1.683676,1.687426,1.675176
2020-11-15 23:12:43.884,1.573048,1.691677,1.692302,1.674551
2020-11-15 23:12:43.901,1.572798,1.691927,1.694302,1.674926
2020-11-15 23:12:43.918,1.570548,1.689677,1.705677,1.674926
2020-11-15 23:12:43.935,1.570423,1.685926,1.700177,1.676301
2020-11-15 23:12:43.952,1.570673,1.676926,1.696677,1.675801
2020-11-15 23:12:43.969,1.573298,1.682301,1.687802,1.675551
2020-11-15 23:12:43.986,1.575173,1.683801,1.691802,1.675051
2020-11-15 23:12:44.003,1.572798,1.692802,1.693052,1.673551
2020-11-15 23:12:44.020,1.571798,1.690052,1.699677,1.674676
2020-11-15 23:12:44.037,1.570423,1.688802,1.703302,1.675926
2020-11-15 23:12:44.054,1.570423,1.679301,1.699302,1.677301
2020-11-15 23:12:44.071,1.570673,1.682426,1.695677,1.676176
2020-11-15 23:12:44.088,1.573673,1.683051,1.686801,1.675426
2020-11-15 23:12:44.105,1.573423,1.687551,1.691052,1.673926
2020-11-15 23:12:44.122,1.572423,1.696552,1.692302,1.674926
2020-11-15 23:12:44.139,1.571923,1.689927,1.705052,1.675301
2020-11-15 23:12:44.156,1.570048,1.689052,1.699677,1.675426
2020-11-15 23:12:44.173,1.570548,1.678801,1.699552,1.677051
2020-11-15 23:12:44.190,1.571173,1.681801,1.690302,1.676176
2020-11-15 23:12:44.207,1.576923,1.682676,1.690802,1.675176
2020-11-15 23:12:44.224,1.573548,1.688302,1.692552,1.673051
2020-11-15 23:12:44.241,1.572923,1.694177,1.696427,1.674801
2020-11-15 23:12:44.258,1.570048,1.689302,1.705552,1.674676
2020-11-15 23:12:44.275,1.570673,1.684426,1.699802,1.676801
2020-11-15 23:12:44.292,1.570298,1.677301,1.698427,1.676551
2020-11-15 23:12:44.309,1.571423,1.683926,1.689177,1.675926
2020-11-15 23:12:44.326,1.574923,1.685426,1.691552,1.675051
2020-11-15 23:12:44.344,1.573298,1.690927,1.692052,1.673926
2020-11-15 23:12:44.361,1.572548,1.693552,1.693552,1.674551
2020-11-15 23:12:44.378,1.570923,1.690677,1.703302,1.675176
2020-11-15 23:12:44.395,1.569298,1.687176,1.699552,1.676176
2020-11-15 23:12:44.412,1.569798,1.677051,1.697427,1.676176
2020-11-15 23:12:44.429,1.572548,1.682676,1.688177,1.675676
2020-11-15 23:12:44.446,1.575923,1.683301,1.691302,1.675051
2020-11-15 23:12:44.463,1.573048,1.691427,1.693427,1.673426
2020-11-15 23:12:44.480,1.572298,1.690927,1.698552,1.673551
2020-11-15 23:12:44.497,1.570173,1.689427,1.705177,1.674176
2020-11-15 23:12:44.514,1.570173,1.685176,1.699052,1.677551
2020-11-15 23:12:44.531,1.571048,1.676176,1.696677,1.676176
2020-11-15 23:12:44.548,1.574048,1.683301,1.688427,1.675801
2020-11-15 23:12:44.565,1.575048,1.687426,1.691177,1.674801
2020-11-15 23:12:44.582,1.573298,1.695802,1.692302,1.674801
2020-11-15 23:12:44.599,1.571673,1.690552,1.699677,1.674801
2020-11-15 23:12:44.616,1.568923,1.688677,1.701802,1.674801
2020-11-15 23:12:44.633,1.570673,1.679926,1.698677,1.677426
2020-11-15 23:12:44.650,1.571423,1.681676,1.692302,1.676176
2020-11-15 23:12:44.667,1.576173,1.682926,1.689177,1.675301
2020-11-15 23:12:44.684,1.573673,1.687551,1.692552,1.673551
2020-11-15 23:12:44.701,1.572798,1.696052,1.695927,1.674676
2020-11-15 23:12:44.718,1.570298,1.689677,1.704802,1.675051
2020-11-15 23:12:44.735,1.570423,1.685426,1.699927,1.676551
2020-11-15 23:12:44.752,1.570173,1.676301,1.699177,1.676676
2020-11-15 23:12:44.769,1.572048,1.683551,1.690552,1.676051
2020-11-15 23:12:44.786,1.576298,1.684551,1.690427,1.675301
2020-11-15 23:12:44.803,1.572548,1.693802,1.692427,1.673426
2020-11-15 23:12:44.820,1.572298,1.691177,1.695427,1.675176
2020-11-15 23:12:44.837,1.569048,1.689802,1.702052,1.675176
2020-11-15 23:12:44.854,1.570548,1.683926,1.699177,1.676676
2020-11-15 23:12:44.871,1.570048,1.678176,1.695677,1.676301
2020-11-15 23:12:44.888,1.574048,1.683176,1.686426,1.674926
2020-11-15 23:12:44.905,1.573173,1.685301,1.692677,1.674051
2020-11-15 23:12:44.922,1.572923,1.694427,1.693302,1.675176
2020-11-15 23:12:44.939,1.572173,1.690677,1.701802,1.675051
2020-11-15 23:12:44.956,1.569298,1.687426,1.700302,1.675676
2020-11-15 23:12:44.973,1.570298,1.678426,1.698927,1.677301
2020-11-15 23:12:44.990,1.570548,1.682051,1.694427,1.675551
2020-11-15 23:12:45.007,1.574048,1.683301,1.685801,1.675176
2020-11-15 23:12:45.024,1.572673,1.690177,1.691802,1.674176
2020-11-15 23:12:45.041,1.572673,1.693802,1.696302,1.675051
2020-11-15 23:12:45.058,1.569923,1.688927,1.705427,1.674676
2020-11-15 23:12:45.075,1.569923,1.686926,1.699927,1.675926
2020-11-15 23:12:45.092,1.569923,1.677926,1.698177,1.676176
2020-11-15 23:12:45.109,1.572798,1.682051,1.688052,1.675926
2020-11-15 23:12:45.126,1.576048,1.683051,1.691177,1.675051
2020-11-15 23:12:45.143,1.573798,1.691427,1.692552,1.673051
2020-11-15 23:12:45.160,1.572798,1.694927,1.695052,1.674051
2020-11-15 23:12:45.178,1.571048,1.689802,1.704177,1.674801
2020-11-15 23:12:45.195,1.569298,1.686551,1.700177,1.676676
2020-11-15 23:12:45.212,1.570298,1.676551,1.698177,1.676551
2020-11-15 23:12:45.229,1.570923,1.682176,1.691802,1.676176
2020-11-15 23:12:45.246,1.575423,1.684176,1.688177,1.675926
2020-11-15 23:12:45.263,1.572298,1.693927,1.691677,1.674051
2020-11-15 23:12:45.280,1.572548,1.690927,1.699302,1.674801
2020-11-15 23:12:45.297,1.569048,1.689677,1.703677,1.674801
2020-11-15 23:12:45.314,1.570673,1.685676,1.698552,1.676551
2020-11-15 23:12:45.331,1.570048,1.676551,1.695927,1.675801
2020-11-15 23:12:45.348,1.572673,1.682051,1.688552,1.675801
2020-11-15 23:12:45.365,1.575298,1.684426,1.691927,1.674301
2020-11-15 23:12:45.382,1.572673,1.696802,1.693177,1.674801
2020-11-15 23:12:45.399,1.571298,1.690427,1.700927,1.674301
2020-11-15 23:12:45.416,1.569673,1.688427,1.701052,1.675676
2020-11-15 23:12:45.433,1.569298,1.679051,1.698802,1.677426
2020-11-15 23:12:45.450,1.570298,1.682551,1.694427,1.675426
2020-11-15 23:12:45.467,1.573798,1.683301,1.686301,1.675926
2020-11-15 23:12:45.484,1.573798,1.688302,1.692802,1.674301
2020-11-15 23:12:45.501,1.572548,1.694927,1.696052,1.674676
2020-11-15 23:12:45.518,1.570298,1.690052,1.705802,1.674551
2020-11-15 23:12:45.535,1.569548,1.687551,1.699927,1.675801
2020-11-15 23:12:45.552,1.570423,1.676926,1.698552,1.676176
2020-11-15 23:12:45.569,1.571173,1.681801,1.688802,1.675426
2020-11-15 23:12:45.586,1.575673,1.682676,1.691677,1.675426
2020-11-15 23:12:45.603,1.572798,1.694927,1.692802,1.674176
2020-11-15 23:12:45.620,1.571798,1.691177,1.696552,1.674801
2020-11-15 23:12:45.637,1.570173,1.690177,1.705302,1.675801
2020-11-15 23:12:45.654,1.569173,1.682301,1.698802,1.677301
2020-11-15 23:12:45.671,1.569798,1.679426,1.697177,1.675676
2020-11-15 23:12:45.688,1.571048,1.682926,1.688177,1.675801
2020-11-15 23:12:45.705,1.575423,1.686301,1.692302,1.674801
2020-11-15 23:12:45.722,1.572298,1.695927,1.694052,1.674051
2020-11-15 23:12:45.739,1.570923,1.690677,1.703052,1.674176
2020-11-15 23:12:45.756,1.568798,1.688802,1.700302,1.675176
2020-11-15 23:12:45.773,1.570048,1.681926,1.698677,1.676676
2020-11-15 23:12:45.790,1.571173,1.680176,1.693552,1.675676
2020-11-15 23:12:45.807,1.574923,1.682801,1.686426,1.675676
2020-11-15 23:12:45.824,1.573923,1.691552,1.692177,1.673551
2020-11-15 23:12:45.841,1.572798,1.692552,1.694677,1.675176
2020-11-15 23:12:45.858,1.570673,1.690052,1.703927,1.675051
2020-11-15 23:12:45.875,1.569298,1.685926,1.700302,1.676176
2020-11-15 23:12:45.892,1.569923,1.677801,1.698802,1.676051
2020-11-15 23:12:45.909,1.570048,1.683051,1.692177,1.675426
2020-11-15 23:12:45.926,1.574923,1.683301,1.688052,1.675551
2020-11-15 23:12:45.943,1.572423,1.692677,1.693177,1.673801
2020-11-15 23:12:45.960,1.571673,1.690552,1.699177,1.674926
2020-11-15 23:12:45.977,1.570048,1.690052,1.703052,1.674051
2020-11-15 23:12:45.995,1.569048,1.688552,1.700302,1.676051
2020-11-15 23:12:46.013,1.569923,1.679176,1.699302,1.676926
2020-11-15 23:12:46.030,1.571048,1.681801,1.691552,1.675676
2020-11-15 23:12:46.047,1.575548,1.682801,1.689927,1.674926
2020-11-15 23:12:46.064,1.573048,1.688302,1.693052,1.673676
2020-11-15 23:12:46.081,1.572923,1.694677,1.696052,1.675176
2020-11-15 23:12:46.098,1.569298,1.689677,1.705802,1.674551
2020-11-15 23:12:46.115,1.569423,1.684551,1.699927,1.677301
2020-11-15 23:12:46.132,1.570423,1.677676,1.698552,1.676801
2020-11-15 23:12:46.149,1.571923,1.682301,1.689302,1.676051
2020-11-15 23:12:46.166,1.575548,1.683051,1.691927,1.675301
2020-11-15 23:12:46.183,1.573048,1.689677,1.692677,1.673801
2020-11-15 23:12:46.200,1.572298,1.690802,1.697052,1.674801
2020-11-15 23:12:46.217,1.569048,1.690302,1.705677,1.675426
2020-11-15 23:12:46.234,1.570673,1.682926,1.698927,1.677051
2020-11-15 23:12:46.251,1.570298,1.679676,1.696927,1.676801
2020-11-15 23:12:46.268,1.572173,1.682926,1.687927,1.675676
2020-11-15 23:12:46.285,1.575923,1.686051,1.690677,1.674051
2020-11-15 23:12:46.302,1.572298,1.695927,1.694177,1.673551
2020-11-15 23:12:46.319,1.571298,1.690052,1.703552,1.674301
2020-11-15 23:12:46.336,1.568673,1.689552,1.700302,1.674676
2020-11-15 23:12:46.353,1.570173,1.681176,1.699177,1.676551
2020-11-15 23:12:46.370,1.570673,1.680426,1.693177,1.675426
2020-11-15 23:12:46.387,1.575173,1.682551,1.687176,1.674676
2020-11-15 23:12:46.404,1.573048,1.686051,1.692677,1.673926
2020-11-15 23:12:46.421,1.572548,1.692052,1.694677,1.674676
2020-11-15 23:12:46.438,1.570298,1.689302,1.704302,1.675051
2020-11-15 23:12:46.455,1.568798,1.686551,1.699802,1.676926
2020-11-15 23:12:46.472,1.569923,1.677176,1.697927,1.676426
2020-11-15 23:12:46.489,1.570798,1.682676,1.692427,1.676426
2020-11-15 23:12:46.506,1.575048,1.683801,1.688177,1.675176
2020-11-15 23:12:46.523,1.572673,1.692802,1.692802,1.673426
2020-11-15 23:12:46.540,1.572048,1.691177,1.699302,1.674176
2020-11-15 23:12:46.557,1.569298,1.689677,1.703302,1.674926
2020-11-15 23:12:46.574,1.569798,1.685301,1.698802,1.676176
2020-11-15 23:12:46.591,1.570923,1.675926,1.696427,1.675551
2020-11-15 23:12:46.608,1.572798,1.682426,1.686926,1.675051
2020-11-15 23:12:46.625,1.574673,1.686926,1.692427,1.674676
2020-11-15 23:12:46.642,1.572923,1.696052,1.693177,1.674176
2020-11-15 23:12:46.659,1.570923,1.690427,1.700677,1.675301
2020-11-15 23:12:46.676,1.568923,1.688552,1.701177,1.675926
2020-11-15 23:12:46.693,1.569673,1.678676,1.698927,1.677801
2020-11-15 23:12:46.710,1.569923,1.682051,1.694677,1.675676
2020-11-15 23:12:46.727,1.573798,1.683801,1.686176,1.675676
2020-11-15 23:12:46.744,1.572923,1.689302,1.691677,1.674426
2020-11-15 23:12:46.761,1.572798,1.695302,1.696302,1.674301
2020-11-15 23:12:46.778,1.570173,1.690052,1.705302,1.674301
2020-11-15 23:12:46.795,1.569673,1.687051,1.699677,1.675426
2020-11-15 23:12:46.812,1.569798,1.681051,1.699177,1.676801
2020-11-15 23:12:46.830,1.571048,1.679676,1.694802,1.675176
2020-11-15 23:12:46.847,1.574673,1.682551,1.686051,1.675176
2020-11-15 23:12:46.864,1.573673,1.686051,1.692677,1.674051
2020-11-15 23:12:46.881,1.572673,1.693177,1.694177,1.674551
2020-11-15 23:12:46.898,1.571548,1.690177,1.703552,1.674801
2020-11-15 23:12:46.915,1.568173,1.686676,1.700052,1.675926
2020-11-15 23:12:46.932,1.569923,1.677301,1.698677,1.676301
2020-11-15 23:12:46.949,1.571798,1.682676,1.692677,1.676176
2020-11-15 23:12:46.966,1.574548,1.683801,1.686676,1.675551
2020-11-15 23:12:46.983,1.572548,1.691802,1.693302,1.673301
2020-11-15 23:12:47.000,1.571673,1.690927,1.697927,1.674551
2020-11-15 23:12:47.017,1.569423,1.689677,1.704802,1.674426
2020-11-15 23:12:47.034,1.570173,1.686301,1.699552,1.676301
2020-11-15 23:12:47.051,1.570173,1.676801,1.696427,1.675551
2020-11-15 23:12:47.068,1.571798,1.682676,1.687051,1.675426
2020-11-15 23:12:47.085,1.575423,1.683551,1.691052,1.674551
2020-11-15 23:12:47.102,1.572798,1.696927,1.692927,1.674551
2020-11-15 23:12:47.119,1.571798,1.689927,1.699677,1.674426
2020-11-15 23:12:47.136,1.569673,1.688927,1.702927,1.675426
2020-11-15 23:12:47.153,1.569298,1.679676,1.698927,1.677551
2020-11-15 23:12:47.170,1.570548,1.681801,1.696052,1.675926
2020-11-15 23:12:47.187,1.573548,1.683426,1.686301,1.675426
2020-11-15 23:12:47.204,1.573923,1.687677,1.691677,1.674426
2020-11-15 23:12:47.221,1.572173,1.697427,1.695427,1.674676
2020-11-15 23:12:47.238,1.571173,1.689802,1.704677,1.674551
2020-11-15 23:12:47.255,1.570048,1.687677,1.699802,1.675301
2020-11-15 23:12:47.272,1.570048,1.678551,1.698177,1.676426
2020-11-15 23:12:47.289,1.572048,1.681926,1.690802,1.675176
2020-11-15 23:12:47.306,1.575423,1.682801,1.690552,1.674426
2020-11-15 23:12:47.323,1.573298,1.688052,1.692052,1.673676
2020-11-15 23:12:47.340,1.572548,1.691052,1.696052,1.675051
2020-11-15 23:12:47.357,1.570423,1.689802,1.705802,1.674801
2020-11-15 23:12:47.374,1.569673,1.684176,1.698677,1.676801
2020-11-15 23:12:47.391,1.570173,1.676551,1.697177,1.676176
2020-11-15 23:12:47.408,1.572173,1.683176,1.688927,1.676176
2020-11-15 23:12:47.425,1.575673,1.685301,1.692177,1.674676
2020-11-15 23:12:47.442,1.572423,1.695177,1.693677,1.674301
2020-11-15 23:12:47.459,1.571298,1.690677,1.702427,1.674051
2020-11-15 23:12:47.476,1.569048,1.689302,1.700052,1.675051
2020-11-15 23:12:47.493,1.569798,1.682801,1.699302,1.677301
2020-11-15 23:12:47.510,1.570548,1.679801,1.694927,1.675676
2020-11-15 23:12:47.527,1.575423,1.682676,1.685801,1.675676
2020-11-15 23:12:47.544,1.573173,1.685801,1.692427,1.673801
2020-11-15 23:12:47.561,1.572673,1.693927,1.693552,1.674551
2020-11-15 23:12:47.578,1.571423,1.690052,1.703177,1.675426
2020-11-15 23:12:47.595,1.568673,1.686926,1.699802,1.675426
2020-11-15 23:12:47.612,1.570548,1.677676,1.698052,1.676301
2020-11-15 23:12:47.629,1.570423,1.682676,1.694052,1.675301
2020-11-15 23:12:47.647,1.572798,1.683301,1.687051,1.675426
2020-11-15 23:12:47.664,1.574923,1.687176,1.692427,1.674176
2020-11-15 23:12:47.681,1.572923,1.696552,1.695052,1.674051
2020-11-15 23:12:47.698,1.570798,1.689802,1.704427,1.674051
2020-11-15 23:12:47.715,1.569923,1.688677,1.700052,1.675301
2020-11-15 23:12:47.732,1.570423,1.679176,1.698802,1.677176
2020-11-15 23:12:47.749,1.570923,1.681801,1.691927,1.675426
2020-11-15 23:12:47.766,1.575173,1.684176,1.689302,1.675051
2020-11-15 23:12:47.783,1.573423,1.693802,1.692552,1.673551
2020-11-15 23:12:47.800,1.572673,1.690677,1.695802,1.674426
2020-11-15 23:12:47.817,1.570673,1.689802,1.705177,1.674676
2020-11-15 23:12:47.834,1.569548,1.685676,1.699677,1.676551
2020-11-15 23:12:47.851,1.569923,1.677051,1.695802,1.676176
2020-11-15 23:12:47.868,1.573673,1.683051,1.686801,1.675426
2020-11-15 23:12:47.885,1.573798,1.684676,1.692177,1.674926
2020-11-15 23:12:47.902,1.573923,1.694177,1.693302,1.673301
2020-11-15 23:12:47.919,1.571923,1.690177,1.701427,1.674051
2020-11-15 23:12:47.936,1.569048,1.689052,1.700427,1.675801
2020-11-15 23:12:47.953,1.570173,1.678926,1.699302,1.676801
2020-11-15 23:12:47.970,1.571048,1.681426,1.695552,1.676051
2020-11-15 23:12:47.987,1.574298,1.683301,1.685676,1.675551
2020-11-15 23:12:48.004,1.573298,1.689302,1.692177,1.673801
2020-11-15 23:12:48.021,1.572798,1.694802,1.693177,1.674426
2020-11-15 23:12:48.038,1.570923,1.690177,1.706302,1.674426
2020-11-15 23:12:48.055,1.569923,1.686801,1.699802,1.675426
2020-11-15 23:12:48.072,1.570423,1.677801,1.698302,1.676176
2020-11-15 23:12:48.089,1.571923,1.681426,1.689052,1.675176
2020-11-15 23:12:48.106,1.576298,1.683051,1.691927,1.674551
2020-11-15 23:12:48.123,1.572673,1.690177,1.692552,1.674176
2020-11-15 23:12:48.140,1.572673,1.690927,1.697427,1.674801
2020-11-15 23:12:48.157,1.570048,1.689802,1.705802,1.674551
2020-11-15 23:12:48.174,1.569923,1.682426,1.699552,1.676926
2020-11-15 23:12:48.191,1.570298,1.679801,1.696927,1.675801
2020-11-15 23:12:48.208,1.571923,1.682551,1.687426,1.675176
2020-11-15 23:12:48.225,1.575798,1.686051,1.693177,1.674551
2020-11-15 23:12:48.242,1.573923,1.695927,1.694052,1.674426
2020-11-15 23:12:48.259,1.571798,1.690427,1.703927,1.675051
2020-11-15 23:12:48.276,1.570173,1.689052,1.700677,1.675301
2020-11-15 23:12:48.293,1.570673,1.680801,1.698927,1.676801
2020-11-15 23:12:48.310,1.571048,1.681176,1.692552,1.676051
2020-11-15 23:12:48.327,1.575548,1.682926,1.687551,1.675051
2020-11-15 23:12:48.344,1.573798,1.686801,1.692427,1.674051
2020-11-15 23:12:48.361,1.572673,1.696052,1.695302,1.673676
2020-11-15 23:12:48.378,1.570423,1.689552,1.704427,1.674176
2020-11-15 23:12:48.395,1.570048,1.687927,1.700552,1.676801
2020-11-15 23:12:48.412,1.570048,1.676551,1.698052,1.675426
2020-11-15 23:12:48.429,1.572798,1.682301,1.692552,1.675676
2020-11-15 23:12:48.446,1.575673,1.682551,1.689302,1.675176
2020-11-15 23:12:48.463,1.573673,1.687426,1.692427,1.674301
2020-11-15 23:12:48.482,1.573298,1.694177,1.693552,1.674926
2020-11-15 23:12:48.499,1.571923,1.690052,1.702052,1.674551
2020-11-15 23:12:48.516,1.569173,1.688052,1.700427,1.675676
2020-11-15 23:12:48.533,1.570298,1.678801,1.699177,1.676676
2020-11-15 23:12:48.550,1.570798,1.682301,1.694677,1.675801
2020-11-15 23:12:48.567,1.574298,1.683176,1.686176,1.675176
2020-11-15 23:12:48.584,1.572923,1.689177,1.691802,1.673801
2020-11-15 23:12:48.601,1.571548,1.694052,1.696552,1.674176
2020-11-15 23:12:48.618,1.569298,1.690177,1.705677,1.674801
2020-11-15 23:12:48.635,1.569298,1.686926,1.699677,1.676176
2020-11-15 23:12:48.652,1.570173,1.677551,1.697802,1.676051
2020-11-15 23:12:48.669,1.571673,1.682051,1.689177,1.675176
2020-11-15 23:12:48.686,1.576423,1.682801,1.691802,1.674926
2020-11-15 23:12:48.703,1.572673,1.695052,1.692677,1.674426
2020-11-15 23:12:48.720,1.571923,1.690802,1.697052,1.674301
2020-11-15 23:12:48.737,1.569423,1.690302,1.705302,1.675926
2020-11-15 23:12:48.753,1.569298,1.682551,1.698552,1.677051
