Datetime,chan0,chan1,chan2,chan3
2020-11-15 21:52:15.211,1.675801,1.711427,1.715177,1.715052
2020-11-15 21:52:15.228,1.674551,1.712302,1.722678,1.714802
2020-11-15 21:52:15.245,1.674801,1.710427,1.719677,1.715677
2020-11-15 21:52:15.262,1.673926,1.705302,1.719552,1.715177
2020-11-15 21:52:15.279,1.674801,1.707802,1.713052,1.715302
2020-11-15 21:52:15.296,1.676051,1.707927,1.714427,1.714802
2020-11-15 21:52:15.313,1.675676,1.712302,1.714802,1.713427
2020-11-15 21:52:15.330,1.675301,1.710802,1.718177,1.715427
2020-11-15 21:52:15.347,1.674051,1.712177,1.721303,1.714927
2020-11-15 21:52:15.364,1.674551,1.707427,1.719427,1.715677
2020-11-15 21:52:15.381,1.673926,1.707677,1.718177,1.715927
2020-11-15 21:52:15.398,1.675051,1.708427,1.710927,1.716052
2020-11-15 21:52:15.415,1.675801,1.709302,1.714552,1.715052
2020-11-15 21:52:15.432,1.675301,1.714302,1.715927,1.715177
2020-11-15 21:52:15.449,1.675176,1.711427,1.722178,1.714427
2020-11-15 21:52:15.466,1.674926,1.711177,1.719802,1.715177
2020-11-15 21:52:15.483,1.674426,1.707177,1.719552,1.715052
2020-11-15 21:52:15.500,1.674676,1.707677,1.715302,1.714802
2020-11-15 21:52:15.518,1.677051,1.707552,1.714177,1.714927
2020-11-15 21:52:15.535,1.675926,1.712302,1.714802,1.714802
2020-11-15 21:52:15.552,1.675926,1.712177,1.716552,1.714927
2020-11-15 21:52:15.569,1.674426,1.711177,1.722928,1.714177
2020-11-15 21:52:15.587,1.673676,1.711302,1.719927,1.715427
2020-11-15 21:52:15.604,1.675051,1.706927,1.718927,1.715677
2020-11-15 21:52:15.621,1.674176,1.707927,1.717177,1.715177
2020-11-15 21:52:15.638,1.676176,1.708177,1.711927,1.715177
2020-11-15 21:52:15.655,1.675676,1.711052,1.714927,1.715052
2020-11-15 21:52:15.672,1.676176,1.712052,1.716177,1.715177
2020-11-15 21:52:15.689,1.674051,1.710802,1.722178,1.714552
2020-11-15 21:52:15.706,1.674426,1.710427,1.719552,1.715302
2020-11-15 21:52:15.723,1.674426,1.705177,1.718927,1.714802
2020-11-15 21:52:15.740,1.675051,1.708052,1.713427,1.715052
2020-11-15 21:52:15.757,1.676301,1.707302,1.715177,1.715302
2020-11-15 21:52:15.774,1.676176,1.713427,1.714552,1.714927
2020-11-15 21:52:15.791,1.676551,1.711302,1.718177,1.714802
2020-11-15 21:52:15.808,1.674176,1.711802,1.720928,1.714802
2020-11-15 21:52:15.825,1.674801,1.708052,1.719802,1.716677
2020-11-15 21:52:15.842,1.674176,1.707802,1.718052,1.715677
2020-11-15 21:52:15.859,1.674801,1.708177,1.711302,1.715177
2020-11-15 21:52:15.876,1.676051,1.709302,1.714927,1.714552
2020-11-15 21:52:15.893,1.676051,1.713552,1.716177,1.714177
2020-11-15 21:52:15.910,1.675051,1.711552,1.723053,1.714802
2020-11-15 21:52:15.928,1.674551,1.711677,1.719677,1.715052
2020-11-15 21:52:15.945,1.674801,1.706927,1.719927,1.715677
2020-11-15 21:52:15.962,1.674926,1.707552,1.716052,1.715052
2020-11-15 21:52:15.979,1.675801,1.707677,1.714552,1.715552
2020-11-15 21:52:15.996,1.676051,1.712677,1.714302,1.715177
2020-11-15 21:52:16.013,1.675801,1.711302,1.715927,1.714802
2020-11-15 21:52:16.030,1.674676,1.711802,1.722428,1.714927
2020-11-15 21:52:16.047,1.673801,1.709927,1.719427,1.715677
2020-11-15 21:52:16.064,1.674051,1.706302,1.718052,1.715177
2020-11-15 21:52:16.081,1.676176,1.708427,1.711677,1.715802
2020-11-15 21:52:16.098,1.676051,1.708677,1.714802,1.715052
2020-11-15 21:52:16.115,1.675926,1.712427,1.714802,1.714427
2020-11-15 21:52:16.132,1.675676,1.711927,1.720177,1.714677
2020-11-15 21:52:16.149,1.673676,1.711302,1.720052,1.714677
2020-11-15 21:52:16.166,1.674801,1.708302,1.720177,1.715677
2020-11-15 21:52:16.183,1.674551,1.708302,1.717552,1.714802
2020-11-15 21:52:16.200,1.676551,1.708177,1.711052,1.715927
2020-11-15 21:52:16.217,1.675801,1.711177,1.715052,1.715052
2020-11-15 21:52:16.234,1.675926,1.713052,1.715052,1.714677
2020-11-15 21:52:16.251,1.675051,1.711677,1.721053,1.715177
2020-11-15 21:52:16.268,1.673926,1.711177,1.719677,1.715677
2020-11-15 21:52:16.285,1.674176,1.706302,1.719177,1.715427
2020-11-15 21:52:16.302,1.674801,1.707802,1.713552,1.716052
2020-11-15 21:52:16.319,1.676801,1.707927,1.714802,1.715927
2020-11-15 21:52:16.336,1.675801,1.711052,1.715052,1.714427
2020-11-15 21:52:16.353,1.675801,1.711677,1.717927,1.715552
2020-11-15 21:52:16.370,1.674551,1.711177,1.722178,1.714427
2020-11-15 21:52:16.387,1.674676,1.710177,1.719552,1.715052
2020-11-15 21:52:16.404,1.674426,1.705052,1.719677,1.715552
2020-11-15 21:52:16.423,1.674926,1.708052,1.715177,1.715302
2020-11-15 21:52:16.440,1.676676,1.707802,1.714052,1.715552
2020-11-15 21:52:16.457,1.676176,1.712802,1.715177,1.715177
2020-11-15 21:52:16.474,1.675551,1.712427,1.716177,1.714802
2020-11-15 21:52:16.491,1.674926,1.711802,1.722053,1.715427
2020-11-15 21:52:16.508,1.674301,1.709802,1.720428,1.716177
2020-11-15 21:52:16.525,1.674176,1.706427,1.718427,1.715302
2020-11-15 21:52:16.542,1.675926,1.708427,1.712677,1.715802
2020-11-15 21:52:16.559,1.675801,1.708802,1.715302,1.715552
2020-11-15 21:52:16.576,1.676426,1.712802,1.715177,1.714677
2020-11-15 21:52:16.593,1.676051,1.711302,1.720428,1.714552
2020-11-15 21:52:16.610,1.673926,1.711177,1.719302,1.715552
2020-11-15 21:52:16.627,1.674926,1.707177,1.720052,1.715677
2020-11-15 21:52:16.644,1.674926,1.707927,1.718052,1.715177
2020-11-15 21:52:16.661,1.675801,1.708427,1.711052,1.715802
2020-11-15 21:52:16.678,1.675676,1.710302,1.714427,1.714927
2020-11-15 21:52:16.695,1.676051,1.713052,1.714927,1.715302
2020-11-15 21:52:16.712,1.675051,1.711677,1.720428,1.715177
2020-11-15 21:52:16.729,1.673176,1.710927,1.719427,1.715677
2020-11-15 21:52:16.746,1.674426,1.706302,1.719677,1.715552
2020-11-15 21:52:16.763,1.675551,1.707552,1.713552,1.715552
2020-11-15 21:52:16.780,1.676551,1.708052,1.714427,1.714927
2020-11-15 21:52:16.797,1.676176,1.711302,1.715177,1.714302
2020-11-15 21:52:16.814,1.675801,1.711552,1.717302,1.714177
2020-11-15 21:52:16.831,1.674051,1.711052,1.722803,1.714302
2020-11-15 21:52:16.848,1.674426,1.708677,1.719052,1.715802
2020-11-15 21:52:16.865,1.674176,1.708052,1.719177,1.715927
2020-11-15 21:52:16.882,1.675176,1.708052,1.712427,1.715677
2020-11-15 21:52:16.899,1.675926,1.709927,1.714427,1.714927
2020-11-15 21:52:16.916,1.675801,1.714427,1.714052,1.715552
2020-11-15 21:52:16.933,1.675801,1.712052,1.718302,1.715052
2020-11-15 21:52:16.950,1.673801,1.711677,1.720302,1.715552
2020-11-15 21:52:16.968,1.675301,1.707177,1.719177,1.715552
2020-11-15 21:52:16.985,1.675051,1.708052,1.716177,1.715677
2020-11-15 21:52:17.002,1.675676,1.708052,1.711677,1.716302
2020-11-15 21:52:17.019,1.675926,1.709677,1.713177,1.714177
2020-11-15 21:52:17.036,1.676176,1.714552,1.713927,1.714552
2020-11-15 21:52:17.053,1.675301,1.711552,1.723178,1.714927
2020-11-15 21:52:17.070,1.674676,1.711427,1.719552,1.715052
2020-11-15 21:52:17.087,1.674676,1.707177,1.720177,1.716052
2020-11-15 21:52:17.104,1.675051,1.707677,1.715552,1.715052
2020-11-15 21:52:17.121,1.676676,1.708052,1.714927,1.715052
2020-11-15 21:52:17.138,1.675676,1.709802,1.714802,1.713677
2020-11-15 21:52:17.155,1.676051,1.712427,1.716302,1.715052
2020-11-15 21:52:17.172,1.674551,1.711802,1.723178,1.714802
2020-11-15 21:52:17.189,1.674426,1.709677,1.719552,1.715552
2020-11-15 21:52:17.206,1.674676,1.706802,1.719552,1.716052
2020-11-15 21:52:17.223,1.675051,1.708302,1.713427,1.714302
2020-11-15 21:52:17.242,1.676301,1.708177,1.711052,1.715552
2020-11-15 21:52:17.259,1.675051,1.711677,1.715302,1.714427
2020-11-15 21:52:17.276,1.675301,1.711927,1.717802,1.714552
2020-11-15 21:52:17.293,1.675051,1.712052,1.723178,1.714927
2020-11-15 21:52:17.310,1.674426,1.710177,1.719177,1.715177
2020-11-15 21:52:17.327,1.674801,1.705052,1.719427,1.714927
2020-11-15 21:52:17.344,1.675051,1.707802,1.713802,1.715052
2020-11-15 21:52:17.361,1.676426,1.707802,1.714927,1.715802
2020-11-15 21:52:17.378,1.675926,1.713677,1.714927,1.715052
2020-11-15 21:52:17.395,1.675676,1.711302,1.717802,1.715427
2020-11-15 21:52:17.412,1.673551,1.711677,1.721178,1.715552
2020-11-15 21:52:17.429,1.674051,1.707552,1.719802,1.715927
2020-11-15 21:52:17.446,1.673926,1.708552,1.718052,1.715677
2020-11-15 21:52:17.463,1.674926,1.708427,1.711427,1.716302
2020-11-15 21:52:17.480,1.676426,1.709427,1.715177,1.714552
2020-11-15 21:52:17.497,1.675676,1.714177,1.716302,1.714552
2020-11-15 21:52:17.514,1.674926,1.711552,1.722303,1.714427
2020-11-15 21:52:17.531,1.674051,1.711302,1.720052,1.714427
2020-11-15 21:52:17.548,1.675051,1.706677,1.720177,1.715177
2020-11-15 21:52:17.565,1.675301,1.706927,1.715427,1.715927
2020-11-15 21:52:17.582,1.676551,1.708427,1.714052,1.715552
2020-11-15 21:52:17.599,1.675676,1.712552,1.714552,1.715177
2020-11-15 21:52:17.616,1.676301,1.712552,1.715802,1.715177
2020-11-15 21:52:17.633,1.674301,1.712052,1.722928,1.715552
2020-11-15 21:52:17.650,1.674676,1.709802,1.719177,1.716052
2020-11-15 21:52:17.667,1.674301,1.706552,1.719552,1.715427
2020-11-15 21:52:17.684,1.675926,1.708052,1.711927,1.716177
2020-11-15 21:52:17.701,1.675676,1.708677,1.715052,1.714927
2020-11-15 21:52:17.718,1.676176,1.713177,1.714802,1.714427
2020-11-15 21:52:17.735,1.675551,1.711427,1.720177,1.714802
2020-11-15 21:52:17.752,1.673926,1.711677,1.720052,1.715427
2020-11-15 21:52:17.769,1.675051,1.708052,1.720428,1.716427
2020-11-15 21:52:17.787,1.675176,1.708052,1.717802,1.715802
2020-11-15 21:52:17.804,1.676301,1.708677,1.711677,1.715177
2020-11-15 21:52:17.821,1.676176,1.711302,1.714802,1.714677
2020-11-15 21:52:17.838,1.675176,1.712552,1.714427,1.714927
2020-11-15 21:52:17.855,1.675176,1.711302,1.720553,1.715302
2020-11-15 21:52:17.872,1.673801,1.710552,1.719177,1.716052
2020-11-15 21:52:17.889,1.674301,1.706052,1.719302,1.716052
2020-11-15 21:52:17.906,1.675676,1.708177,1.713427,1.715552
2020-11-15 21:52:17.923,1.676801,1.707927,1.714052,1.715177
2020-11-15 21:52:17.940,1.676426,1.711302,1.714802,1.714552
2020-11-15 21:52:17.957,1.676301,1.710802,1.717302,1.714302
2020-11-15 21:52:17.974,1.674551,1.711302,1.722428,1.714802
2020-11-15 21:52:17.991,1.674551,1.710177,1.719552,1.716427
2020-11-15 21:52:18.008,1.674801,1.707552,1.718177,1.715677
2020-11-15 21:52:18.025,1.675176,1.708552,1.713302,1.716427
2020-11-15 21:52:18.042,1.676926,1.710302,1.714677,1.714927
2020-11-15 21:52:18.059,1.675551,1.712552,1.714302,1.714927
2020-11-15 21:52:18.077,1.675926,1.711927,1.716052,1.715677
2020-11-15 21:52:18.094,1.674551,1.711552,1.722178,1.714677
2020-11-15 21:52:18.111,1.674551,1.710052,1.719177,1.715802
2020-11-15 21:52:18.128,1.674801,1.706802,1.718552,1.715802
2020-11-15 21:52:18.145,1.676176,1.708052,1.712302,1.715552
2020-11-15 21:52:18.162,1.676551,1.708302,1.714927,1.715552
2020-11-15 21:52:18.179,1.676551,1.711927,1.715052,1.715302
2020-11-15 21:52:18.197,1.676051,1.712052,1.720052,1.715427
2020-11-15 21:52:18.214,1.673926,1.711927,1.720052,1.714677
2020-11-15 21:52:18.231,1.674551,1.708552,1.719802,1.715177
2020-11-15 21:52:18.248,1.674801,1.707927,1.718052,1.716177
2020-11-15 21:52:18.265,1.676301,1.708427,1.711677,1.716177
2020-11-15 21:52:18.282,1.676301,1.710427,1.715177,1.714552
2020-11-15 21:52:18.299,1.676051,1.713302,1.714927,1.715302
2020-11-15 21:52:18.316,1.675301,1.711802,1.720928,1.713927
2020-11-15 21:52:18.333,1.673051,1.711177,1.719177,1.715427
2020-11-15 21:52:18.350,1.674426,1.706927,1.718927,1.716052
2020-11-15 21:52:18.367,1.674801,1.708177,1.714427,1.716052
2020-11-15 21:52:18.384,1.677176,1.707677,1.714802,1.715552
2020-11-15 21:52:18.401,1.676176,1.711677,1.714802,1.714302
2020-11-15 21:52:18.418,1.676176,1.712302,1.717177,1.714802
2020-11-15 21:52:18.435,1.674676,1.710677,1.723178,1.714552
2020-11-15 21:52:18.452,1.674801,1.708802,1.719177,1.716302
2020-11-15 21:52:18.469,1.674676,1.708427,1.719427,1.715802
2020-11-15 21:52:18.486,1.675051,1.708677,1.714177,1.716177
2020-11-15 21:52:18.503,1.676801,1.709802,1.714177,1.714677
2020-11-15 21:52:18.520,1.675426,1.713677,1.714552,1.715302
2020-11-15 21:52:18.537,1.675551,1.711802,1.721553,1.715302
2020-11-15 21:52:18.554,1.673551,1.711677,1.720302,1.714802
2020-11-15 21:52:18.571,1.675176,1.707927,1.720302,1.716177
2020-11-15 21:52:18.588,1.675301,1.708177,1.716927,1.715552
2020-11-15 21:52:18.605,1.676676,1.708177,1.713552,1.715427
2020-11-15 21:52:18.622,1.676301,1.709302,1.715177,1.714302
2020-11-15 21:52:18.639,1.676426,1.714052,1.715427,1.715052
2020-11-15 21:52:18.656,1.675176,1.711552,1.721678,1.715302
2020-11-15 21:52:18.673,1.674176,1.710302,1.719927,1.715802
2020-11-15 21:52:18.690,1.674926,1.706177,1.719927,1.715677
2020-11-15 21:52:18.707,1.674926,1.708302,1.714802,1.716552
2020-11-15 21:52:18.724,1.676926,1.708302,1.714927,1.715552
2020-11-15 21:52:18.741,1.676051,1.712677,1.714802,1.714927
2020-11-15 21:52:18.758,1.675676,1.711802,1.719052,1.714927
2020-11-15 21:52:18.775,1.673801,1.711427,1.720803,1.714677
2020-11-15 21:52:18.792,1.674926,1.709302,1.720302,1.715302
2020-11-15 21:52:18.809,1.675051,1.708052,1.718552,1.716052
2020-11-15 21:52:18.826,1.675801,1.708427,1.711802,1.715927
2020-11-15 21:52:18.843,1.675801,1.709802,1.715552,1.715052
2020-11-15 21:52:18.860,1.675551,1.713552,1.714302,1.714927
2020-11-15 21:52:18.877,1.675551,1.711302,1.720428,1.714302
2020-11-15 21:52:18.895,1.673801,1.711552,1.722553,1.715427
2020-11-15 21:52:18.912,1.674551,1.708927,1.719677,1.715927
2020-11-15 21:52:18.929,1.674926,1.706677,1.717427,1.715927
2020-11-15 21:52:18.946,1.676426,1.708177,1.711177,1.715052
2020-11-15 21:52:18.963,1.675801,1.709552,1.715677,1.714427
2020-11-15 21:52:18.980,1.676301,1.713552,1.715552,1.714427
2020-11-15 21:52:18.998,1.675551,1.711052,1.720803,1.714927
2020-11-15 21:52:19.014,1.674551,1.710677,1.719927,1.716302
2020-11-15 21:52:19.031,1.674801,1.706427,1.719802,1.716052
2020-11-15 21:52:19.049,1.674176,1.708552,1.717427,1.715552
2020-11-15 21:52:19.065,1.676551,1.708677,1.712177,1.714802
2020-11-15 21:52:19.083,1.675301,1.712427,1.715802,1.714677
2020-11-15 21:52:19.100,1.676676,1.712427,1.717177,1.715552
2020-11-15 21:52:19.117,1.674301,1.711677,1.722803,1.714552
2020-11-15 21:52:19.134,1.674551,1.710177,1.720052,1.715177
2020-11-15 21:52:19.151,1.674551,1.705302,1.719302,1.715177
2020-11-15 21:52:19.168,1.675426,1.708052,1.713302,1.715677
2020-11-15 21:52:19.185,1.677051,1.708302,1.715052,1.715427
2020-11-15 21:52:19.202,1.676301,1.712302,1.715052,1.713552
2020-11-15 21:52:19.219,1.675926,1.712177,1.718802,1.715552
2020-11-15 21:52:19.236,1.674051,1.711802,1.721178,1.715677
2020-11-15 21:52:19.253,1.674926,1.707427,1.719052,1.716427
2020-11-15 21:52:19.270,1.674301,1.708177,1.718677,1.715302
2020-11-15 21:52:19.287,1.675801,1.708677,1.711677,1.715677
2020-11-15 21:52:19.304,1.675926,1.709677,1.714552,1.714927
2020-11-15 21:52:19.321,1.676301,1.714177,1.715052,1.715302
2020-11-15 21:52:19.338,1.675801,1.711302,1.719427,1.715802
2020-11-15 21:52:19.355,1.673551,1.711677,1.719677,1.715552
2020-11-15 21:52:19.373,1.674551,1.706677,1.719427,1.716177
2020-11-15 21:52:19.390,1.674426,1.708177,1.718052,1.715927
2020-11-15 21:52:19.407,1.675176,1.708177,1.714927,1.715302
2020-11-15 21:52:19.424,1.676301,1.710427,1.715427,1.715052
2020-11-15 21:52:19.441,1.675801,1.713677,1.716802,1.714677
2020-11-15 21:52:19.458,1.674551,1.710802,1.723303,1.714677
2020-11-15 21:52:19.475,1.674551,1.710802,1.719802,1.715302
2020-11-15 21:52:19.492,1.674801,1.705927,1.719552,1.715552
2020-11-15 21:52:19.509,1.675301,1.707927,1.714302,1.715927
2020-11-15 21:52:19.526,1.676926,1.709052,1.714677,1.715302
2020-11-15 21:52:19.543,1.676176,1.712927,1.714927,1.715052
2020-11-15 21:52:19.560,1.675926,1.711427,1.716427,1.714927
2020-11-15 21:52:19.577,1.674551,1.711927,1.722553,1.715302
2020-11-15 21:52:19.594,1.674551,1.708927,1.719177,1.716052
2020-11-15 21:52:19.611,1.674551,1.707552,1.718302,1.715427
2020-11-15 21:52:19.628,1.675551,1.708552,1.711802,1.715802
2020-11-15 21:52:19.645,1.675801,1.708927,1.715052,1.714427
2020-11-15 21:52:19.662,1.676551,1.713552,1.715552,1.715177
2020-11-15 21:52:19.679,1.675426,1.710677,1.721178,1.714552
2020-11-15 21:52:19.696,1.674051,1.710927,1.720177,1.716177
2020-11-15 21:52:19.713,1.674926,1.708177,1.719552,1.715927
2020-11-15 21:52:19.731,1.674676,1.707927,1.718552,1.715552
2020-11-15 21:52:19.748,1.675551,1.708427,1.712552,1.715552
2020-11-15 21:52:19.765,1.676801,1.709552,1.714802,1.714927
2020-11-15 21:52:19.782,1.675551,1.714427,1.714177,1.715177
2020-11-15 21:52:19.799,1.675426,1.712052,1.722053,1.714552
2020-11-15 21:52:19.816,1.674051,1.711552,1.720052,1.715427
2020-11-15 21:52:19.833,1.674676,1.707802,1.719802,1.716302
2020-11-15 21:52:19.850,1.674801,1.707927,1.716052,1.715427
2020-11-15 21:52:19.867,1.676426,1.707677,1.713677,1.715302
2020-11-15 21:52:19.884,1.676551,1.709677,1.715427,1.714302
2020-11-15 21:52:19.901,1.676426,1.713302,1.717052,1.714927
2020-11-15 21:52:19.918,1.675426,1.711927,1.722678,1.714927
2020-11-15 21:52:19.935,1.674676,1.710552,1.719552,1.715802
2020-11-15 21:52:19.952,1.674926,1.705677,1.719052,1.715302
2020-11-15 21:52:19.969,1.674676,1.708552,1.713927,1.715677
2020-11-15 21:52:19.986,1.676176,1.708552,1.714552,1.715302
2020-11-15 21:52:20.003,1.674926,1.712552,1.714052,1.715052
2020-11-15 21:52:20.020,1.676426,1.711927,1.719677,1.714302
2020-11-15 21:52:20.038,1.673801,1.711677,1.719677,1.714802
2020-11-15 21:52:20.055,1.674926,1.709427,1.718802,1.715552
2020-11-15 21:52:20.072,1.675176,1.706302,1.717927,1.715052
2020-11-15 21:52:20.089,1.676426,1.707927,1.711927,1.715177
2020-11-15 21:52:20.106,1.676176,1.708052,1.715552,1.715302
2020-11-15 21:52:20.123,1.676176,1.713677,1.715302,1.715052
2020-11-15 21:52:20.140,1.675051,1.711677,1.720302,1.715177
2020-11-15 21:52:20.157,1.673676,1.711177,1.719427,1.716052
2020-11-15 21:52:20.174,1.674426,1.706677,1.718427,1.716052
2020-11-15 21:52:20.191,1.674301,1.708052,1.717177,1.716052
2020-11-15 21:52:20.208,1.675676,1.708177,1.714927,1.715427
2020-11-15 21:52:20.225,1.676301,1.711302,1.715052,1.714677
2020-11-15 21:52:20.242,1.676051,1.711552,1.717052,1.714802
2020-11-15 21:52:20.259,1.674801,1.711427,1.723178,1.715052
2020-11-15 21:52:20.276,1.674926,1.710302,1.720177,1.715052
2020-11-15 21:52:20.293,1.674426,1.705927,1.719552,1.715552
2020-11-15 21:52:20.310,1.675176,1.707677,1.713052,1.716177
2020-11-15 21:52:20.327,1.676801,1.710052,1.714802,1.715302
2020-11-15 21:52:20.344,1.675676,1.714177,1.714802,1.714927
2020-11-15 21:52:20.361,1.675551,1.711927,1.717552,1.714802
2020-11-15 21:52:20.378,1.674426,1.712177,1.722053,1.715177
2020-11-15 21:52:20.395,1.673801,1.708052,1.718302,1.716052
2020-11-15 21:52:20.412,1.675176,1.708552,1.716802,1.715802
2020-11-15 21:52:20.429,1.676676,1.707927,1.712927,1.715927
2020-11-15 21:52:20.446,1.676426,1.709177,1.714927,1.714927
2020-11-15 21:52:20.463,1.675551,1.714177,1.716177,1.715052
2020-11-15 21:52:20.480,1.675426,1.710927,1.722303,1.714427
2020-11-15 21:52:20.497,1.674301,1.710427,1.719802,1.716052
2020-11-15 21:52:20.514,1.674801,1.706052,1.719302,1.716052
2020-11-15 21:52:20.531,1.674926,1.708552,1.715677,1.714677
2020-11-15 21:52:20.549,1.675676,1.708052,1.712302,1.715302
2020-11-15 21:52:20.566,1.676051,1.709802,1.714427,1.714802
2020-11-15 21:52:20.583,1.676176,1.713552,1.714927,1.714927
2020-11-15 21:52:20.600,1.675176,1.711802,1.719802,1.715802
2020-11-15 21:52:20.617,1.673301,1.711052,1.719052,1.715427
2020-11-15 21:52:20.634,1.674926,1.706927,1.719802,1.715927
2020-11-15 21:52:20.651,1.674801,1.707802,1.714927,1.715427
2020-11-15 21:52:20.668,1.676676,1.708302,1.714927,1.715927
2020-11-15 21:52:20.685,1.676176,1.710427,1.715302,1.714302
2020-11-15 21:52:20.702,1.676176,1.712302,1.716677,1.714927
2020-11-15 21:52:20.719,1.675051,1.711302,1.723053,1.714677
2020-11-15 21:52:20.736,1.674676,1.709302,1.719552,1.716052
2020-11-15 21:52:20.753,1.674176,1.707177,1.718927,1.715802
2020-11-15 21:52:20.770,1.674801,1.708677,1.713552,1.715552
2020-11-15 21:52:20.788,1.676676,1.709427,1.713802,1.714927
2020-11-15 21:52:20.805,1.675301,1.713177,1.715427,1.714927
2020-11-15 21:52:20.822,1.675926,1.711677,1.721178,1.715177
2020-11-15 21:52:20.839,1.673551,1.711552,1.720177,1.715052
2020-11-15 21:52:20.856,1.675051,1.708552,1.719677,1.715927
2020-11-15 21:52:20.873,1.675176,1.708052,1.717927,1.716302
2020-11-15 21:52:20.890,1.676426,1.707927,1.712677,1.715427
2020-11-15 21:52:20.907,1.676051,1.711677,1.714552,1.714427
2020-11-15 21:52:20.924,1.676551,1.712552,1.716052,1.715302
2020-11-15 21:52:20.941,1.675301,1.712052,1.721178,1.715177
2020-11-15 21:52:20.958,1.673176,1.710927,1.719427,1.715552
2020-11-15 21:52:20.975,1.674301,1.705802,1.718927,1.715802
2020-11-15 21:52:20.992,1.675426,1.708177,1.713052,1.715677
2020-11-15 21:52:21.009,1.676051,1.707802,1.714802,1.715802
2020-11-15 21:52:21.026,1.675926,1.712302,1.715302,1.714552
2020-11-15 21:52:21.043,1.675426,1.711427,1.717552,1.714802
2020-11-15 21:52:21.060,1.673926,1.711052,1.721928,1.714427
2020-11-15 21:52:21.077,1.674551,1.709302,1.720177,1.716427
2020-11-15 21:52:21.094,1.674676,1.708177,1.719052,1.715802
2020-11-15 21:52:21.111,1.675676,1.708552,1.712677,1.715177
2020-11-15 21:52:21.128,1.675801,1.709927,1.714177,1.715177
2020-11-15 21:52:21.145,1.675301,1.713927,1.714427,1.715427
2020-11-15 21:52:21.162,1.674676,1.711427,1.718427,1.714302
2020-11-15 21:52:21.179,1.673426,1.711927,1.719802,1.715052
2020-11-15 21:52:21.196,1.675176,1.708677,1.720428,1.716427
2020-11-15 21:52:21.213,1.674801,1.707802,1.715802,1.715552
2020-11-15 21:52:21.230,1.676051,1.708802,1.714427,1.715802
2020-11-15 21:52:21.247,1.675926,1.709552,1.714927,1.714927
2020-11-15 21:52:21.264,1.676176,1.712802,1.716552,1.715427
2020-11-15 21:52:21.281,1.675051,1.711927,1.722678,1.715177
2020-11-15 21:52:21.298,1.674926,1.710427,1.719552,1.715677
2020-11-15 21:52:21.315,1.674801,1.706427,1.719927,1.715802
2020-11-15 21:52:21.332,1.675176,1.708177,1.714427,1.715427
2020-11-15 21:52:21.349,1.676551,1.708927,1.713927,1.715302
2020-11-15 21:52:21.366,1.676051,1.709552,1.714427,1.715552
2020-11-15 21:52:21.384,1.675801,1.713427,1.714927,1.715177
2020-11-15 21:52:21.402,1.675176,1.711677,1.719927,1.714302
2020-11-15 21:52:21.419,1.673301,1.710927,1.720052,1.715802
2020-11-15 21:52:21.436,1.674801,1.706427,1.720052,1.715802
2020-11-15 21:52:21.453,1.674926,1.707552,1.714302,1.715677
2020-11-15 21:52:21.470,1.677301,1.707927,1.715177,1.715052
2020-11-15 21:52:21.487,1.676176,1.711052,1.715177,1.714052
2020-11-15 21:52:21.504,1.675926,1.711302,1.716802,1.715052
2020-11-15 21:52:21.521,1.674801,1.711927,1.722678,1.715302
2020-11-15 21:52:21.538,1.674551,1.708427,1.719552,1.715927
2020-11-15 21:52:21.555,1.674176,1.708052,1.719052,1.715927
2020-11-15 21:52:21.572,1.675801,1.708177,1.712677,1.716302
2020-11-15 21:52:21.589,1.676176,1.710052,1.714177,1.714802
2020-11-15 21:52:21.606,1.675926,1.713677,1.715177,1.715677
2020-11-15 21:52:21.623,1.676426,1.711302,1.718177,1.714927
2020-11-15 21:52:21.640,1.674176,1.711427,1.720928,1.715052
2020-11-15 21:52:21.657,1.674551,1.707802,1.719302,1.716177
2020-11-15 21:52:21.674,1.674676,1.709177,1.717802,1.715677
2020-11-15 21:52:21.691,1.674551,1.708177,1.712427,1.715177
2020-11-15 21:52:21.708,1.675676,1.709427,1.714677,1.715302
2020-11-15 21:52:21.726,1.675301,1.714302,1.716302,1.715302
2020-11-15 21:52:21.743,1.675051,1.711677,1.722428,1.714552
2020-11-15 21:52:21.760,1.674426,1.711052,1.719677,1.714927
2020-11-15 21:52:21.777,1.674551,1.706302,1.720177,1.715677
2020-11-15 21:52:21.794,1.674926,1.707927,1.715427,1.715427
2020-11-15 21:52:21.811,1.676926,1.707802,1.714552,1.715552
2020-11-15 21:52:21.828,1.676051,1.713052,1.715677,1.714552
2020-11-15 21:52:21.845,1.676676,1.712177,1.716177,1.715552
2020-11-15 21:52:21.862,1.674551,1.711677,1.722803,1.715177
2020-11-15 21:52:21.879,1.674176,1.710552,1.719052,1.716177
2020-11-15 21:52:21.896,1.674176,1.706552,1.719802,1.716052
2020-11-15 21:52:21.913,1.674551,1.708177,1.713802,1.715677
2020-11-15 21:52:21.930,1.677051,1.709052,1.714677,1.714927
2020-11-15 21:52:21.947,1.676301,1.713427,1.715927,1.715177
2020-11-15 21:52:21.964,1.676301,1.711802,1.719927,1.714677
2020-11-15 21:52:21.981,1.674426,1.711427,1.720302,1.714302
2020-11-15 21:52:21.998,1.674801,1.708427,1.719927,1.715052
2020-11-15 21:52:22.015,1.675051,1.706427,1.718052,1.715302
2020-11-15 21:52:22.032,1.675926,1.707552,1.711802,1.716052
2020-11-15 21:52:22.049,1.675801,1.710927,1.714677,1.714927
2020-11-15 21:52:22.066,1.676301,1.713052,1.715427,1.715427
2020-11-15 21:52:22.083,1.675176,1.711927,1.720928,1.714802
2020-11-15 21:52:22.100,1.673301,1.711052,1.719427,1.716177
2020-11-15 21:52:22.117,1.674176,1.706552,1.719177,1.716802
2020-11-15 21:52:22.134,1.674301,1.708427,1.714177,1.716552
2020-11-15 21:52:22.151,1.676676,1.708177,1.715177,1.715052
2020-11-15 21:52:22.168,1.676301,1.711427,1.715802,1.714302
2020-11-15 21:52:22.185,1.675551,1.711302,1.717802,1.713677
2020-11-15 21:52:22.203,1.675676,1.711177,1.721553,1.714552
2020-11-15 21:52:22.220,1.674301,1.710927,1.719802,1.715802
2020-11-15 21:52:22.237,1.674676,1.705927,1.720302,1.715677
2020-11-15 21:52:22.254,1.674676,1.708302,1.716927,1.716302
2020-11-15 21:52:22.271,1.677051,1.708802,1.713427,1.716552
2020-11-15 21:52:22.288,1.675551,1.712052,1.714677,1.714677
2020-11-15 21:52:22.305,1.675801,1.711427,1.715677,1.715177
2020-11-15 21:52:22.322,1.674676,1.711802,1.721678,1.714802
2020-11-15 21:52:22.339,1.674551,1.709677,1.719927,1.715677
2020-11-15 21:52:22.356,1.675301,1.705552,1.718302,1.715427
2020-11-15 21:52:22.373,1.675801,1.708802,1.712052,1.715677
2020-11-15 21:52:22.390,1.676676,1.708052,1.715177,1.714302
2020-11-15 21:52:22.407,1.676176,1.712302,1.715177,1.715427
2020-11-15 21:52:22.424,1.676176,1.711677,1.718802,1.715052
2020-11-15 21:52:22.442,1.674176,1.711677,1.719802,1.715927
2020-11-15 21:52:22.459,1.674551,1.707427,1.719802,1.716052
2020-11-15 21:52:22.476,1.674926,1.708427,1.717677,1.716052
2020-11-15 21:52:22.493,1.675551,1.708802,1.710802,1.715552
2020-11-15 21:52:22.510,1.675801,1.710427,1.715302,1.715427
2020-11-15 21:52:22.527,1.676801,1.713677,1.716552,1.714802
2020-11-15 21:52:22.544,1.674551,1.711427,1.722678,1.715052
2020-11-15 21:52:22.561,1.674551,1.711052,1.719927,1.714927
2020-11-15 21:52:22.578,1.674801,1.706052,1.719802,1.715177
2020-11-15 21:52:22.595,1.675051,1.707177,1.715052,1.715927
2020-11-15 21:52:22.612,1.677051,1.709552,1.714677,1.715927
2020-11-15 21:52:22.629,1.675801,1.713177,1.715427,1.715052
2020-11-15 21:52:22.646,1.675926,1.711802,1.716552,1.715177
2020-11-15 21:52:22.663,1.673926,1.711802,1.722303,1.714802
2020-11-15 21:52:22.680,1.674301,1.709177,1.719177,1.715927
2020-11-15 21:52:22.697,1.674426,1.707427,1.718427,1.715177
2020-11-15 21:52:22.714,1.676801,1.708052,1.711802,1.715302
2020-11-15 21:52:22.731,1.676176,1.709177,1.715052,1.715052
2020-11-15 21:52:22.748,1.676176,1.713802,1.714677,1.715302
2020-11-15 21:52:22.765,1.675301,1.711177,1.721178,1.714802
2020-11-15 21:52:22.782,1.674426,1.711552,1.720052,1.714302
2020-11-15 21:52:22.799,1.674801,1.706677,1.719802,1.715802
2020-11-15 21:52:22.816,1.674801,1.708427,1.717052,1.716177
2020-11-15 21:52:22.833,1.675926,1.708177,1.712427,1.716052
2020-11-15 21:52:22.850,1.676676,1.711802,1.714677,1.714427
2020-11-15 21:52:22.867,1.675676,1.711802,1.715302,1.715177
2020-11-15 21:52:22.884,1.675176,1.711427,1.721178,1.714552
2020-11-15 21:52:22.901,1.673676,1.711052,1.720553,1.715552
2020-11-15 21:52:22.918,1.674926,1.706177,1.719927,1.715802
2020-11-15 21:52:22.935,1.675551,1.708802,1.713677,1.715427
2020-11-15 21:52:22.952,1.676676,1.708427,1.715177,1.715427
2020-11-15 21:52:22.969,1.676176,1.712052,1.715302,1.714177
2020-11-15 21:52:22.986,1.676301,1.711302,1.717802,1.714427
2020-11-15 21:52:23.003,1.674551,1.711177,1.721678,1.715302
2020-11-15 21:52:23.020,1.675051,1.709927,1.720052,1.716552
2020-11-15 21:52:23.038,1.674926,1.706802,1.720302,1.715552
2020-11-15 21:52:23.055,1.674551,1.708302,1.715177,1.715552
2020-11-15 21:52:23.072,1.676926,1.708427,1.714177,1.715427
2020-11-15 21:52:23.089,1.675801,1.712802,1.714677,1.714552
2020-11-15 21:52:23.106,1.675676,1.712302,1.719302,1.714802
2020-11-15 21:52:23.123,1.674801,1.711802,1.721178,1.715427
2020-11-15 21:52:23.140,1.674926,1.710552,1.720177,1.716302
2020-11-15 21:52:23.157,1.675051,1.706427,1.718802,1.715802
2020-11-15 21:52:23.174,1.676176,1.708177,1.711302,1.715302
2020-11-15 21:52:23.191,1.676926,1.709052,1.715052,1.715052
2020-11-15 21:52:23.208,1.676051,1.713302,1.715802,1.715052
2020-11-15 21:52:23.225,1.676051,1.711552,1.720302,1.715677
2020-11-15 21:52:23.243,1.673926,1.711302,1.720177,1.715677
2020-11-15 21:52:23.260,1.674676,1.707802,1.719677,1.716927
2020-11-15 21:52:23.277,1.674676,1.708052,1.717302,1.715677
2020-11-15 21:52:23.294,1.675926,1.708427,1.711427,1.715677
2020-11-15 21:52:23.311,1.675926,1.710802,1.714802,1.715427
2020-11-15 21:52:23.328,1.675801,1.713052,1.717302,1.714552
2020-11-15 21:52:23.345,1.674551,1.711677,1.723553,1.715802
2020-11-15 21:52:23.362,1.674926,1.710677,1.720052,1.715302
2020-11-15 21:52:23.379,1.675301,1.706677,1.719802,1.715677
2020-11-15 21:52:23.396,1.674926,1.707802,1.714302,1.716302
2020-11-15 21:52:23.413,1.677301,1.709052,1.714802,1.715052
2020-11-15 21:52:23.430,1.675926,1.713427,1.715302,1.715052
2020-11-15 21:52:23.447,1.675676,1.712052,1.716677,1.714677
2020-11-15 21:52:23.464,1.674176,1.711802,1.721678,1.715427
2020-11-15 21:52:23.481,1.674551,1.709177,1.718802,1.716177
2020-11-15 21:52:23.498,1.675426,1.708302,1.717927,1.715927
2020-11-15 21:52:23.515,1.676676,1.708427,1.711427,1.715552
2020-11-15 21:52:23.532,1.676051,1.708927,1.715177,1.715427
2020-11-15 21:52:23.549,1.676801,1.713927,1.716177,1.714802
2020-11-15 21:52:23.566,1.675551,1.711427,1.721178,1.714052
2020-11-15 21:52:23.583,1.674426,1.710302,1.719927,1.716302
2020-11-15 21:52:23.600,1.674926,1.705927,1.720177,1.715427
2020-11-15 21:52:23.617,1.674801,1.707927,1.716302,1.716177
2020-11-15 21:52:23.634,1.676426,1.708427,1.712802,1.715927
2020-11-15 21:52:23.651,1.676051,1.712552,1.714427,1.714802
2020-11-15 21:52:23.668,1.676051,1.712052,1.717802,1.715427
2020-11-15 21:52:23.685,1.674801,1.711927,1.722178,1.715177
2020-11-15 21:52:23.702,1.674926,1.710302,1.719927,1.716427
2020-11-15 21:52:23.719,1.674801,1.705927,1.718552,1.715427
2020-11-15 21:52:23.736,1.675676,1.708052,1.713302,1.715552
2020-11-15 21:52:23.753,1.676676,1.708177,1.714802,1.715302
2020-11-15 21:52:23.770,1.675801,1.714177,1.714927,1.715177
2020-11-15 21:52:23.787,1.675801,1.712177,1.718302,1.715177
2020-11-15 21:52:23.804,1.674301,1.711677,1.720428,1.715927
2020-11-15 21:52:23.821,1.675301,1.707927,1.719302,1.716302
2020-11-15 21:52:23.838,1.674301,1.708427,1.716302,1.715302
2020-11-15 21:52:23.856,1.675051,1.708802,1.714302,1.715552
2020-11-15 21:52:23.873,1.676301,1.708927,1.715427,1.715427
2020-11-15 21:52:23.890,1.675176,1.713427,1.715177,1.714427
2020-11-15 21:52:23.908,1.675801,1.712552,1.716302,1.714927
2020-11-15 21:52:23.925,1.674176,1.711677,1.723053,1.716052
2020-11-15 21:52:23.942,1.674426,1.709052,1.720428,1.716552
2020-11-15 21:52:23.959,1.674926,1.707677,1.718302,1.715802
2020-11-15 21:52:23.976,1.676176,1.708427,1.711552,1.715677
2020-11-15 21:52:23.993,1.675926,1.708927,1.715302,1.714927
2020-11-15 21:52:24.010,1.676551,1.714177,1.715552,1.714802
2020-11-15 21:52:24.027,1.676051,1.711552,1.721553,1.714802
2020-11-15 21:52:24.044,1.674176,1.710927,1.720428,1.716427
2020-11-15 21:52:24.061,1.675051,1.706677,1.719677,1.716052
2020-11-15 21:52:24.078,1.675051,1.708552,1.717677,1.715677
2020-11-15 21:52:24.095,1.676176,1.708552,1.712552,1.715802
2020-11-15 21:52:24.112,1.676051,1.711802,1.714552,1.714677
2020-11-15 21:52:24.129,1.675301,1.711677,1.716427,1.715052
2020-11-15 21:52:24.146,1.674426,1.711927,1.723303,1.715302
2020-11-15 21:52:24.163,1.674926,1.710927,1.719802,1.715427
2020-11-15 21:52:24.180,1.674301,1.705677,1.719177,1.715552
2020-11-15 21:52:24.197,1.675676,1.707927,1.713802,1.714927
2020-11-15 21:52:24.214,1.676801,1.708427,1.715177,1.715677
2020-11-15 21:52:24.231,1.676301,1.714927,1.715177,1.715552
2020-11-15 21:52:24.248,1.675801,1.712177,1.718052,1.715802
2020-11-15 21:52:24.265,1.674176,1.711677,1.721553,1.715677
2020-11-15 21:52:24.282,1.674426,1.708177,1.719927,1.716302
2020-11-15 21:52:24.299,1.674676,1.708427,1.718302,1.715677
2020-11-15 21:52:24.316,1.675426,1.708177,1.713302,1.715677
2020-11-15 21:52:24.333,1.675926,1.709677,1.715302,1.714927
2020-11-15 21:52:24.350,1.676801,1.714302,1.716427,1.715552
2020-11-15 21:52:24.367,1.675926,1.711552,1.722428,1.714302
2020-11-15 21:52:24.384,1.674801,1.711052,1.719552,1.714427
2020-11-15 21:52:24.401,1.674176,1.705927,1.719677,1.715677
2020-11-15 21:52:24.418,1.674801,1.708427,1.714927,1.715427
2020-11-15 21:52:24.435,1.676176,1.708427,1.714052,1.715427
2020-11-15 21:52:24.452,1.676176,1.712302,1.714552,1.715177
2020-11-15 21:52:24.469,1.676051,1.711427,1.715927,1.715427
2020-11-15 21:52:24.486,1.674676,1.711427,1.722178,1.715052
2020-11-15 21:52:24.503,1.674301,1.710177,1.719177,1.716052
2020-11-15 21:52:24.520,1.674176,1.706427,1.718427,1.715427
2020-11-15 21:52:24.537,1.675801,1.708052,1.712177,1.715802
2020-11-15 21:52:24.554,1.676426,1.708302,1.715052,1.715302
2020-11-15 21:52:24.571,1.675926,1.713052,1.714052,1.713927
2020-11-15 21:52:24.588,1.674426,1.710802,1.719552,1.714427
2020-11-15 21:52:24.605,1.673926,1.710677,1.719552,1.715552
2020-11-15 21:52:24.622,1.674926,1.707302,1.719302,1.715677
2020-11-15 21:52:24.639,1.673926,1.707927,1.718052,1.715302
2020-11-15 21:52:24.656,1.676551,1.707927,1.710677,1.715177
2020-11-15 21:52:24.673,1.675926,1.708802,1.714052,1.715927
2020-11-15 21:52:24.692,1.675926,1.714052,1.714302,1.714552
2020-11-15 21:52:24.709,1.675676,1.711302,1.716052,1.714802
2020-11-15 21:52:24.726,1.673551,1.711427,1.720177,1.715552
2020-11-15 21:52:24.743,1.675051,1.708677,1.719552,1.715677
2020-11-15 21:52:24.760,1.674801,1.708302,1.717427,1.715177
2020-11-15 21:52:24.777,1.675676,1.707802,1.712052,1.715052
2020-11-15 21:52:24.794,1.675676,1.708677,1.714802,1.713927
2020-11-15 21:52:24.811,1.675676,1.712427,1.714927,1.714927
2020-11-15 21:52:24.828,1.675426,1.711677,1.721303,1.714677
2020-11-15 21:52:24.845,1.673801,1.710927,1.719052,1.715552
2020-11-15 21:52:24.862,1.673801,1.706302,1.719552,1.715302
2020-11-15 21:52:24.879,1.674676,1.707677,1.715427,1.715427
2020-11-15 21:52:24.896,1.675801,1.708052,1.712177,1.714927
2020-11-15 21:52:24.913,1.674676,1.711302,1.714427,1.714552
2020-11-15 21:52:24.930,1.675301,1.711052,1.717427,1.714427
2020-11-15 21:52:24.947,1.674176,1.711302,1.722053,1.714927
2020-11-15 21:52:24.964,1.674801,1.710302,1.719927,1.715427
2020-11-15 21:52:24.981,1.674551,1.705677,1.718552,1.715427
2020-11-15 21:52:24.998,1.675801,1.707302,1.712677,1.715177
2020-11-15 21:52:25.015,1.676051,1.707677,1.714427,1.714927
2020-11-15 21:52:25.032,1.676051,1.714052,1.714802,1.715177
2020-11-15 21:52:25.049,1.675926,1.711052,1.718802,1.714427
2020-11-15 21:52:25.066,1.674176,1.711552,1.719552,1.714802
2020-11-15 21:52:25.083,1.674051,1.707302,1.719552,1.716802
2020-11-15 21:52:25.100,1.674801,1.708052,1.718052,1.715802
2020-11-15 21:52:25.117,1.675301,1.707802,1.710927,1.715552
2020-11-15 21:52:25.134,1.675551,1.709677,1.714802,1.714677
2020-11-15 21:52:25.151,1.676301,1.713177,1.715927,1.714677
2020-11-15 21:52:25.168,1.674801,1.711052,1.722678,1.714427
2020-11-15 21:52:25.185,1.674051,1.710552,1.719677,1.715052
2020-11-15 21:52:25.202,1.674176,1.706677,1.720177,1.715427
2020-11-15 21:52:25.219,1.675426,1.706802,1.714427,1.715052
2020-11-15 21:52:25.236,1.676176,1.706927,1.714927,1.714802
2020-11-15 21:52:25.253,1.675926,1.709677,1.714427,1.714052
2020-11-15 21:52:25.270,1.675801,1.711677,1.716927,1.714427
2020-11-15 21:52:25.288,1.674676,1.710552,1.722678,1.714927
2020-11-15 21:52:25.305,1.673926,1.709052,1.719302,1.715427
2020-11-15 21:52:25.322,1.674176,1.706677,1.719052,1.715427
2020-11-15 21:52:25.339,1.674676,1.707802,1.713302,1.715802
2020-11-15 21:52:25.356,1.676676,1.708427,1.714177,1.715427
2020-11-15 21:52:25.373,1.675301,1.713552,1.713927,1.714677
2020-11-15 21:52:25.390,1.674926,1.711427,1.720928,1.715052
2020-11-15 21:52:25.407,1.673426,1.711177,1.718927,1.715052
2020-11-15 21:52:25.424,1.674426,1.707802,1.719052,1.715802
2020-11-15 21:52:25.441,1.674551,1.707177,1.717677,1.714552
2020-11-15 21:52:25.458,1.676301,1.707927,1.712302,1.715302
2020-11-15 21:52:25.475,1.674926,1.710302,1.714677,1.714427
2020-11-15 21:52:25.492,1.676926,1.712052,1.715427,1.713677
2020-11-15 21:52:25.510,1.675676,1.711302,1.717677,1.714302
2020-11-15 21:52:25.527,1.673801,1.711302,1.721303,1.715052
2020-11-15 21:52:25.544,1.674676,1.707802,1.719177,1.716302
2020-11-15 21:52:25.561,1.674801,1.708177,1.717302,1.715302
2020-11-15 21:52:25.578,1.676676,1.707677,1.712802,1.714927
2020-11-15 21:52:25.595,1.676051,1.708802,1.715177,1.714927
2020-11-15 21:52:25.612,1.675676,1.713927,1.715802,1.714052
2020-11-15 21:52:25.629,1.674426,1.711427,1.721928,1.714552
2020-11-15 21:52:25.646,1.674551,1.710427,1.719927,1.715927
2020-11-15 21:52:25.663,1.674801,1.705677,1.719677,1.715677
2020-11-15 21:52:25.680,1.675176,1.708302,1.715927,1.715802
2020-11-15 21:52:25.697,1.675926,1.707677,1.713677,1.714677
2020-11-15 21:52:25.714,1.676176,1.713177,1.714927,1.714552
2020-11-15 21:52:25.731,1.675801,1.711427,1.715677,1.715177
2020-11-15 21:52:25.748,1.674301,1.711552,1.720177,1.714927
2020-11-15 21:52:25.765,1.674301,1.710427,1.719677,1.715427
2020-11-15 21:52:25.782,1.674551,1.706177,1.718052,1.715177
2020-11-15 21:52:25.799,1.676051,1.708927,1.712052,1.715802
2020-11-15 21:52:25.816,1.675926,1.708802,1.714677,1.714427
2020-11-15 21:52:25.833,1.675676,1.711927,1.715302,1.714052
2020-11-15 21:52:25.850,1.675926,1.711802,1.719802,1.714802
2020-11-15 21:52:25.867,1.673551,1.711677,1.719802,1.714927
2020-11-15 21:52:25.884,1.674426,1.706552,1.720052,1.716427
2020-11-15 21:52:25.901,1.674301,1.708177,1.718177,1.715552
2020-11-15 21:52:25.918,1.676426,1.708427,1.710927,1.715677
2020-11-15 21:52:25.935,1.674926,1.710052,1.713802,1.714427
2020-11-15 21:52:25.952,1.676051,1.712302,1.716427,1.714802
2020-11-15 21:52:25.969,1.674926,1.711177,1.722928,1.714802
2020-11-15 21:52:25.986,1.674676,1.710802,1.720052,1.715677
2020-11-15 21:52:26.003,1.674926,1.705677,1.719302,1.715927
2020-11-15 21:52:26.020,1.675301,1.708052,1.713052,1.715427
2020-11-15 21:52:26.037,1.677176,1.707427,1.714927,1.715552
2020-11-15 21:52:26.054,1.675676,1.713552,1.714927,1.714552
2020-11-15 21:52:26.071,1.675676,1.711927,1.716802,1.715177
2020-11-15 21:52:26.088,1.674551,1.711927,1.723053,1.715177
2020-11-15 21:52:26.105,1.674801,1.708552,1.719427,1.716052
2020-11-15 21:52:26.122,1.674926,1.708177,1.718677,1.716302
2020-11-15 21:52:26.139,1.675051,1.708677,1.712427,1.716177
2020-11-15 21:52:26.156,1.675801,1.709427,1.715302,1.715052
2020-11-15 21:52:26.173,1.676551,1.714427,1.715177,1.714802
2020-11-15 21:52:26.190,1.675426,1.711677,1.722178,1.714927
2020-11-15 21:52:26.208,1.673676,1.711927,1.720052,1.715427
2020-11-15 21:52:26.225,1.674426,1.708052,1.720302,1.716802
2020-11-15 21:52:26.242,1.675801,1.708177,1.716927,1.715552
2020-11-15 21:52:26.259,1.676801,1.707802,1.712052,1.715802
2020-11-15 21:52:26.276,1.676676,1.710052,1.714927,1.714927
2020-11-15 21:52:26.293,1.676301,1.713677,1.715802,1.714927
2020-11-15 21:52:26.310,1.674926,1.711677,1.722428,1.715052
2020-11-15 21:52:26.327,1.674676,1.711177,1.720302,1.715677
2020-11-15 21:52:26.345,1.674926,1.707177,1.719802,1.716552
2020-11-15 21:52:26.362,1.675426,1.708427,1.719052,1.716177
2020-11-15 21:52:26.379,1.676051,1.708802,1.712052,1.716177
2020-11-15 21:52:26.396,1.675801,1.710177,1.714427,1.715302
2020-11-15 21:52:26.413,1.675926,1.713927,1.714927,1.715302
2020-11-15 21:52:26.430,1.675301,1.711552,1.722553,1.715427
2020-11-15 21:52:26.447,1.675301,1.711552,1.720803,1.715927
2020-11-15 21:52:26.464,1.675426,1.706802,1.720678,1.716052
2020-11-15 21:52:26.481,1.675551,1.707677,1.714552,1.714802
2020-11-15 21:52:26.498,1.676926,1.707552,1.715052,1.715052
2020-11-15 21:52:26.515,1.676551,1.710677,1.714802,1.715177
2020-11-15 21:52:26.532,1.676926,1.712302,1.716677,1.715552
2020-11-15 21:52:26.549,1.675176,1.712177,1.723803,1.715677
2020-11-15 21:52:26.566,1.674676,1.708927,1.719552,1.716177
2020-11-15 21:52:26.583,1.674676,1.707427,1.719802,1.715802
2020-11-15 21:52:26.600,1.675676,1.708177,1.712802,1.716427
2020-11-15 21:52:26.617,1.677051,1.709552,1.715302,1.715052
2020-11-15 21:52:26.634,1.676051,1.714177,1.715177,1.715552
2020-11-15 21:52:26.651,1.676301,1.712052,1.721553,1.715052
2020-11-15 21:52:26.668,1.674551,1.712177,1.720928,1.715177
2020-11-15 21:52:26.685,1.675676,1.708302,1.720177,1.716302
2020-11-15 21:52:26.702,1.674676,1.707802,1.718302,1.715552
2020-11-15 21:52:26.719,1.676676,1.708427,1.712677,1.715927
2020-11-15 21:52:26.736,1.676676,1.711427,1.715677,1.715177
2020-11-15 21:52:26.753,1.676051,1.712552,1.715677,1.715677
2020-11-15 21:52:26.770,1.675301,1.712052,1.721803,1.715677
2020-11-15 21:52:26.788,1.674051,1.710802,1.719427,1.716177
2020-11-15 21:52:26.805,1.674301,1.706927,1.719052,1.715927
2020-11-15 21:52:26.822,1.675676,1.708552,1.713677,1.715677
2020-11-15 21:52:26.839,1.677426,1.708427,1.715302,1.715552
2020-11-15 21:52:26.856,1.676551,1.712427,1.714927,1.714677
2020-11-15 21:52:26.873,1.676426,1.711302,1.717927,1.714677
2020-11-15 21:52:26.890,1.674676,1.711677,1.722178,1.715677
2020-11-15 21:52:26.907,1.674676,1.708052,1.720428,1.716927
2020-11-15 21:52:26.924,1.675176,1.708302,1.719052,1.716552
2020-11-15 21:52:26.941,1.676801,1.708927,1.712677,1.715927
2020-11-15 21:52:26.958,1.677176,1.710427,1.714802,1.715552
2020-11-15 21:52:26.975,1.676051,1.714302,1.715177,1.715677
2020-11-15 21:52:26.992,1.676176,1.711677,1.722803,1.715802
2020-11-15 21:52:27.009,1.675301,1.712677,1.721178,1.716177
2020-11-15 21:52:27.026,1.675426,1.707177,1.720678,1.717052
2020-11-15 21:52:27.043,1.675551,1.708427,1.715927,1.716552
2020-11-15 21:52:27.060,1.677801,1.708302,1.714427,1.716177
2020-11-15 21:52:27.077,1.676676,1.710552,1.715677,1.714677
2020-11-15 21:52:27.094,1.676551,1.713177,1.716552,1.715677
2020-11-15 21:52:27.111,1.675051,1.712802,1.723553,1.716177
2020-11-15 21:52:27.128,1.675676,1.710927,1.720177,1.716177
2020-11-15 21:52:27.145,1.675426,1.706677,1.720428,1.715802
2020-11-15 21:52:27.163,1.674926,1.709052,1.718677,1.716677
2020-11-15 21:52:27.180,1.676051,1.709302,1.711802,1.715552
2020-11-15 21:52:27.197,1.676801,1.711927,1.714552,1.715177
2020-11-15 21:52:27.214,1.675926,1.713177,1.716927,1.715802
2020-11-15 21:52:27.231,1.675301,1.711802,1.723928,1.715802
2020-11-15 21:52:27.248,1.675176,1.710927,1.720428,1.715927
2020-11-15 21:52:27.265,1.675301,1.706802,1.720177,1.715802
2020-11-15 21:52:27.282,1.675676,1.707677,1.713427,1.716552
2020-11-15 21:52:27.299,1.678301,1.708302,1.715552,1.716177
2020-11-15 21:52:27.316,1.676426,1.714177,1.715052,1.715302
2020-11-15 21:52:27.333,1.676051,1.712177,1.717677,1.715552
2020-11-15 21:52:27.350,1.674551,1.712427,1.722428,1.715927
2020-11-15 21:52:27.367,1.674301,1.709177,1.720428,1.716552
2020-11-15 21:52:27.384,1.675051,1.708427,1.718802,1.716302
2020-11-15 21:52:27.401,1.675801,1.708927,1.712927,1.716302
2020-11-15 21:52:27.418,1.676926,1.709677,1.716052,1.715177
2020-11-15 21:52:27.435,1.677176,1.715177,1.716802,1.715052
2020-11-15 21:52:27.452,1.675426,1.711552,1.722803,1.715427
2020-11-15 21:52:27.469,1.674676,1.711802,1.720553,1.715302
2020-11-15 21:52:27.486,1.674926,1.707302,1.720803,1.716427
2020-11-15 21:52:27.503,1.675176,1.708427,1.716677,1.716177
2020-11-15 21:52:27.520,1.677301,1.708927,1.713177,1.716302
2020-11-15 21:52:27.537,1.676426,1.713052,1.715677,1.715927
2020-11-15 21:52:27.554,1.676551,1.712802,1.716302,1.715677
2020-11-15 21:52:27.571,1.676051,1.712927,1.723053,1.715927
2020-11-15 21:52:27.588,1.675051,1.711177,1.720428,1.716427
2020-11-15 21:52:27.605,1.675301,1.706427,1.719302,1.716302
2020-11-15 21:52:27.623,1.676301,1.708802,1.713302,1.716427
2020-11-15 21:52:27.640,1.677051,1.709177,1.715677,1.716177
2020-11-15 21:52:27.657,1.676676,1.713177,1.715302,1.714927
2020-11-15 21:52:27.673,1.676176,1.712052,1.720302,1.715052
2020-11-15 21:52:27.690,1.674176,1.711802,1.720803,1.716302
2020-11-15 21:52:27.708,1.675676,1.708177,1.720678,1.716677
2020-11-15 21:52:27.725,1.675301,1.708927,1.719177,1.716302
2020-11-15 21:52:27.742,1.677176,1.709177,1.711677,1.716177
2020-11-15 21:52:27.759,1.676676,1.710802,1.714927,1.715927
2020-11-15 21:52:27.776,1.677051,1.714302,1.715427,1.716302
2020-11-15 21:52:27.793,1.675801,1.712177,1.724053,1.715677
2020-11-15 21:52:27.810,1.675551,1.712052,1.720553,1.715802
2020-11-15 21:52:27.827,1.675426,1.706927,1.720428,1.716052
2020-11-15 21:52:27.844,1.675926,1.708427,1.714552,1.715927
2020-11-15 21:52:27.861,1.677551,1.708302,1.715302,1.715427
2020-11-15 21:52:27.878,1.676676,1.711052,1.715927,1.715802
2020-11-15 21:52:27.895,1.676926,1.712802,1.716927,1.715552
2020-11-15 21:52:27.912,1.675676,1.712177,1.723553,1.715802
2020-11-15 21:52:27.929,1.675301,1.709927,1.720678,1.717302
2020-11-15 21:52:27.946,1.675676,1.708427,1.720428,1.716802
2020-11-15 21:52:27.963,1.676051,1.708927,1.713052,1.716427
2020-11-15 21:52:27.980,1.676676,1.708177,1.712052,1.715677
2020-11-15 21:52:27.998,1.676426,1.713052,1.715552,1.714927
2020-11-15 21:52:28.015,1.677801,1.713427,1.718427,1.716052
2020-11-15 21:52:28.032,1.674926,1.712552,1.723303,1.716302
2020-11-15 21:52:28.049,1.676176,1.711677,1.721428,1.716802
2020-11-15 21:52:28.066,1.675426,1.706427,1.719677,1.715802
2020-11-15 21:52:28.083,1.676051,1.708552,1.713302,1.716052
2020-11-15 21:52:28.100,1.677176,1.710302,1.715177,1.715802
2020-11-15 21:52:28.117,1.677301,1.715677,1.715177,1.715927
2020-11-15 21:52:28.134,1.676176,1.712427,1.719302,1.716177
2020-11-15 21:52:28.151,1.674926,1.712802,1.721678,1.716302
2020-11-15 21:52:28.168,1.675051,1.708677,1.720553,1.717177
2020-11-15 21:52:28.185,1.675176,1.709677,1.719052,1.716302
2020-11-15 21:52:28.202,1.677926,1.709677,1.714052,1.716802
2020-11-15 21:52:28.219,1.677301,1.710927,1.715927,1.715802
2020-11-15 21:52:28.236,1.677176,1.714802,1.716677,1.715427
2020-11-15 21:52:28.253,1.676051,1.712427,1.723803,1.715677
2020-11-15 21:52:28.270,1.675301,1.711927,1.720928,1.715802
2020-11-15 21:52:28.287,1.675176,1.707052,1.720678,1.716427
2020-11-15 21:52:28.304,1.676801,1.709302,1.714427,1.715677
2020-11-15 21:52:28.321,1.677051,1.709802,1.715927,1.715927
2020-11-15 21:52:28.338,1.676426,1.713927,1.715552,1.716052
2020-11-15 21:52:28.356,1.677051,1.713052,1.717552,1.716302
2020-11-15 21:52:28.373,1.675426,1.713302,1.723553,1.715802
2020-11-15 21:52:28.390,1.675676,1.710177,1.720803,1.717427
2020-11-15 21:52:28.407,1.675676,1.707552,1.719927,1.716802
2020-11-15 21:52:28.424,1.675676,1.709177,1.712927,1.716302
2020-11-15 21:52:28.441,1.676426,1.709177,1.715302,1.715802
2020-11-15 21:52:28.458,1.677051,1.714427,1.716052,1.715802
2020-11-15 21:52:28.475,1.676426,1.712427,1.721178,1.715177
2020-11-15 21:52:28.492,1.675426,1.712302,1.721178,1.715427
2020-11-15 21:52:28.509,1.675176,1.710177,1.720928,1.716427
2020-11-15 21:52:28.526,1.675551,1.708177,1.718802,1.716802
2020-11-15 21:52:28.543,1.678051,1.708802,1.712052,1.716552
2020-11-15 21:52:28.560,1.676551,1.709927,1.715302,1.714802
2020-11-15 21:52:28.577,1.677051,1.714677,1.716177,1.715802
2020-11-15 21:52:28.594,1.676301,1.712302,1.722178,1.715927
2020-11-15 21:52:28.611,1.674676,1.711927,1.721053,1.716802
2020-11-15 21:52:28.628,1.675801,1.707052,1.720928,1.716677
2020-11-15 21:52:28.645,1.675676,1.708927,1.716552,1.716677
2020-11-15 21:52:28.662,1.677676,1.709427,1.713427,1.716302
2020-11-15 21:52:28.679,1.676676,1.713302,1.716302,1.715802
2020-11-15 21:52:28.696,1.677426,1.712802,1.718802,1.715677
2020-11-15 21:52:28.713,1.674801,1.712552,1.722678,1.715802
2020-11-15 21:52:28.730,1.676176,1.710927,1.720928,1.716677
2020-11-15 21:52:28.747,1.675176,1.705427,1.719677,1.716427
2020-11-15 21:52:28.764,1.676676,1.708427,1.713052,1.716677
2020-11-15 21:52:28.781,1.677676,1.710927,1.715927,1.716177
2020-11-15 21:52:28.798,1.676676,1.715552,1.714927,1.715177
2020-11-15 21:52:28.816,1.676926,1.713177,1.717677,1.716302
2020-11-15 21:52:28.833,1.675051,1.713177,1.724428,1.715802
2020-11-15 21:52:28.851,1.675176,1.710677,1.720052,1.716802
2020-11-15 21:52:28.868,1.675301,1.707427,1.720302,1.717052
2020-11-15 21:52:28.885,1.675801,1.709677,1.712427,1.716802
2020-11-15 21:52:28.902,1.677426,1.709927,1.716052,1.715927
2020-11-15 21:52:28.919,1.676051,1.713302,1.715552,1.715177
2020-11-15 21:52:28.936,1.676176,1.711552,1.721053,1.714802
2020-11-15 21:52:28.953,1.674426,1.711927,1.721053,1.715677
2020-11-15 21:52:28.970,1.675676,1.709052,1.720928,1.716802
2020-11-15 21:52:28.987,1.675301,1.708677,1.718927,1.716802
2020-11-15 21:52:29.004,1.676176,1.708302,1.711552,1.716427
2020-11-15 21:52:29.021,1.676926,1.712052,1.715802,1.715677
2020-11-15 21:52:29.038,1.676176,1.713802,1.715427,1.716052
2020-11-15 21:52:29.055,1.675926,1.713302,1.722053,1.715677
2020-11-15 21:52:29.072,1.674801,1.711677,1.720803,1.716302
2020-11-15 21:52:29.089,1.675301,1.706927,1.720428,1.716427
2020-11-15 21:52:29.106,1.675801,1.708802,1.713552,1.716052
2020-11-15 21:52:29.123,1.677426,1.708927,1.715302,1.716552
2020-11-15 21:52:29.140,1.677176,1.712052,1.715177,1.714677
2020-11-15 21:52:29.157,1.676426,1.713052,1.718302,1.716052
2020-11-15 21:52:29.174,1.674676,1.712927,1.723553,1.715927
2020-11-15 21:52:29.191,1.675551,1.709677,1.720302,1.717052
2020-11-15 21:52:29.208,1.675926,1.708802,1.719552,1.716552
2020-11-15 21:52:29.225,1.676051,1.709052,1.713177,1.717052
2020-11-15 21:52:29.242,1.677301,1.710552,1.715052,1.716052
2020-11-15 21:52:29.259,1.676301,1.715427,1.716927,1.715427
2020-11-15 21:52:29.276,1.676301,1.712802,1.722928,1.716052
2020-11-15 21:52:29.293,1.674551,1.712177,1.721428,1.716052
2020-11-15 21:52:29.310,1.676801,1.707927,1.720678,1.716552
2020-11-15 21:52:29.327,1.675926,1.708802,1.717052,1.715677
2020-11-15 21:52:29.344,1.677176,1.708552,1.713927,1.716302
2020-11-15 21:52:29.361,1.676676,1.713177,1.715802,1.715177
2020-11-15 21:52:29.378,1.677301,1.713177,1.716427,1.716052
2020-11-15 21:52:29.395,1.675676,1.712677,1.723553,1.716052
2020-11-15 21:52:29.412,1.674926,1.711427,1.720177,1.717427
2020-11-15 21:52:29.429,1.676051,1.706677,1.720678,1.716677
2020-11-15 21:52:29.446,1.675176,1.709052,1.715052,1.717052
2020-11-15 21:52:29.463,1.677176,1.709552,1.715677,1.716427
2020-11-15 21:52:29.480,1.677051,1.713677,1.715677,1.715552
2020-11-15 21:52:29.497,1.676676,1.712052,1.720803,1.715677
2020-11-15 21:52:29.514,1.674551,1.712802,1.720803,1.715177
2020-11-15 21:52:29.531,1.675551,1.710302,1.720928,1.717052
2020-11-15 21:52:29.548,1.675426,1.708552,1.718552,1.716427
2020-11-15 21:52:29.565,1.677176,1.709052,1.712552,1.716052
2020-11-15 21:52:29.582,1.676676,1.710927,1.715302,1.714927
2020-11-15 21:52:29.599,1.676676,1.714552,1.715802,1.715802
2020-11-15 21:52:29.616,1.676426,1.713052,1.721678,1.715677
2020-11-15 21:52:29.633,1.674551,1.712052,1.723053,1.716177
2020-11-15 21:52:29.651,1.674801,1.709177,1.720803,1.717427
2020-11-15 21:52:29.668,1.675801,1.708927,1.719052,1.715927
2020-11-15 21:52:29.685,1.677051,1.709052,1.712427,1.716427
2020-11-15 21:52:29.702,1.676926,1.710177,1.715427,1.715177
2020-11-15 21:52:29.719,1.677426,1.715177,1.715677,1.715302
2020-11-15 21:52:29.736,1.676551,1.711802,1.722678,1.715927
2020-11-15 21:52:29.753,1.674426,1.712177,1.721428,1.716302
2020-11-15 21:52:29.770,1.675676,1.706302,1.720553,1.716677
2020-11-15 21:52:29.787,1.675551,1.709052,1.716927,1.716552
2020-11-15 21:52:29.804,1.677176,1.709427,1.713677,1.716427
2020-11-15 21:52:29.821,1.676551,1.713177,1.715052,1.715427
2020-11-15 21:52:29.838,1.676926,1.712927,1.716177,1.715802
2020-11-15 21:52:29.855,1.675426,1.712677,1.722303,1.715677
2020-11-15 21:52:29.872,1.675176,1.711427,1.720177,1.716677
2020-11-15 21:52:29.889,1.675176,1.706802,1.719927,1.716302
2020-11-15 21:52:29.906,1.676801,1.709052,1.713052,1.716302
2020-11-15 21:52:29.923,1.677176,1.709177,1.715677,1.715302
2020-11-15 21:52:29.940,1.677426,1.713052,1.715427,1.714802
2020-11-15 21:52:29.957,1.676676,1.712552,1.719927,1.716052
2020-11-15 21:52:29.974,1.674801,1.712677,1.722053,1.716427
2020-11-15 21:52:29.992,1.674801,1.707927,1.720177,1.717052
2020-11-15 21:52:30.009,1.675301,1.709302,1.718802,1.716677
2020-11-15 21:52:30.026,1.676801,1.709302,1.712302,1.716677
2020-11-15 21:52:30.043,1.676801,1.711302,1.715427,1.715552
2020-11-15 21:52:30.060,1.676676,1.715052,1.714552,1.715802
2020-11-15 21:52:30.077,1.675801,1.712427,1.723928,1.715427
2020-11-15 21:52:30.094,1.675926,1.711677,1.720302,1.716427
2020-11-15 21:52:30.111,1.675676,1.707427,1.720803,1.716427
2020-11-15 21:52:30.128,1.676176,1.708427,1.715302,1.715802
2020-11-15 21:52:30.145,1.678051,1.708552,1.715177,1.716052
2020-11-15 21:52:30.162,1.677176,1.714177,1.715802,1.716177
2020-11-15 21:52:30.179,1.677051,1.712552,1.717677,1.716177
2020-11-15 21:52:30.196,1.676051,1.712927,1.724553,1.716302
2020-11-15 21:52:30.213,1.675676,1.710802,1.720678,1.717677
2020-11-15 21:52:30.230,1.675426,1.708177,1.720052,1.716927
2020-11-15 21:52:30.247,1.675551,1.709177,1.712052,1.716802
2020-11-15 21:52:30.264,1.677051,1.710177,1.715677,1.716177
2020-11-15 21:52:30.281,1.677551,1.715177,1.716677,1.716427
2020-11-15 21:52:30.298,1.676051,1.712552,1.721803,1.715302
2020-11-15 21:52:30.315,1.674926,1.712677,1.721428,1.715802
2020-11-15 21:52:30.332,1.675426,1.708552,1.720428,1.716427
2020-11-15 21:52:30.349,1.675801,1.709177,1.718427,1.716427
2020-11-15 21:52:30.366,1.677051,1.708802,1.713677,1.717302
2020-11-15 21:52:30.383,1.676926,1.712802,1.715802,1.715302
2020-11-15 21:52:30.400,1.676676,1.712927,1.716677,1.715927
2020-11-15 21:52:30.417,1.674801,1.712302,1.723053,1.716802
2020-11-15 21:52:30.434,1.675301,1.711802,1.720678,1.716677
2020-11-15 21:52:30.451,1.676051,1.706802,1.720052,1.716302
2020-11-15 21:52:30.469,1.676051,1.709802,1.717302,1.716552
2020-11-15 21:52:30.486,1.677426,1.708927,1.714802,1.716802
2020-11-15 21:52:30.503,1.677051,1.710677,1.715802,1.715177
2020-11-15 21:52:30.520,1.677051,1.714677,1.717052,1.715427
2020-11-15 21:52:30.537,1.676301,1.712302,1.723928,1.716052
2020-11-15 21:52:30.554,1.675676,1.711677,1.721053,1.716927
2020-11-15 21:52:30.571,1.675801,1.707427,1.721178,1.716552
2020-11-15 21:52:30.588,1.676426,1.709677,1.715052,1.716927
2020-11-15 21:52:30.605,1.677801,1.709927,1.715302,1.716427
2020-11-15 21:52:30.622,1.677051,1.714552,1.715802,1.714927
2020-11-15 21:52:30.639,1.677051,1.712677,1.720928,1.716177
2020-11-15 21:52:30.656,1.674801,1.712927,1.720177,1.716052
2020-11-15 21:52:30.673,1.675926,1.710427,1.721178,1.716677
2020-11-15 21:52:30.690,1.676176,1.707802,1.719552,1.716802
2020-11-15 21:52:30.707,1.677926,1.708802,1.711802,1.716802
2020-11-15 21:52:30.724,1.677051,1.711427,1.716177,1.715677
2020-11-15 21:52:30.741,1.677176,1.714802,1.715552,1.715677
2020-11-15 21:52:30.758,1.675926,1.713052,1.721928,1.716177
2020-11-15 21:52:30.775,1.674176,1.712802,1.721178,1.716427
2020-11-15 21:52:30.792,1.675051,1.707427,1.720428,1.717802
2020-11-15 21:52:30.809,1.675676,1.709552,1.718802,1.716302
2020-11-15 21:52:30.827,1.677426,1.709427,1.712427,1.716177
2020-11-15 21:52:30.844,1.677176,1.712677,1.715552,1.715427
2020-11-15 21:52:30.861,1.677051,1.713677,1.716052,1.716177
2020-11-15 21:52:30.878,1.675801,1.712552,1.724553,1.715802
2020-11-15 21:52:30.895,1.675801,1.712177,1.721553,1.716427
2020-11-15 21:52:30.912,1.676176,1.707177,1.720803,1.717052
2020-11-15 21:52:30.929,1.676426,1.709177,1.713927,1.716177
2020-11-15 21:52:30.946,1.677676,1.709427,1.716302,1.716052
2020-11-15 21:52:30.963,1.677301,1.712802,1.716177,1.714802
2020-11-15 21:52:30.980,1.676551,1.713677,1.719552,1.716427
2020-11-15 21:52:30.997,1.675301,1.712677,1.722428,1.716927
2020-11-15 21:52:31.014,1.675801,1.709052,1.720428,1.717802
2020-11-15 21:52:31.031,1.675801,1.709052,1.719552,1.716427
2020-11-15 21:52:31.048,1.676176,1.709427,1.712927,1.717427
2020-11-15 21:52:31.065,1.677301,1.710427,1.715177,1.716552
2020-11-15 21:52:31.082,1.676176,1.715177,1.716802,1.715802
2020-11-15 21:52:31.099,1.676426,1.712427,1.723803,1.716177
2020-11-15 21:52:31.116,1.675551,1.712302,1.720928,1.715927
2020-11-15 21:52:31.133,1.675551,1.707677,1.721803,1.716927
2020-11-15 21:52:31.150,1.676051,1.708927,1.716302,1.716802
2020-11-15 21:52:31.167,1.678301,1.709302,1.715927,1.717427
2020-11-15 21:52:31.184,1.677301,1.714552,1.715677,1.715927
2020-11-15 21:52:31.201,1.677176,1.712802,1.717302,1.715677
2020-11-15 21:52:31.218,1.675801,1.713677,1.724303,1.716177
2020-11-15 21:52:31.235,1.676051,1.711552,1.720928,1.717052
2020-11-15 21:52:31.252,1.675676,1.708177,1.720428,1.716927
2020-11-15 21:52:31.269,1.675301,1.709677,1.712677,1.716802
2020-11-15 21:52:31.286,1.677551,1.707927,1.715802,1.716802
2020-11-15 21:52:31.304,1.677801,1.712427,1.716177,1.715802
2020-11-15 21:52:31.321,1.677426,1.713552,1.717677,1.715677
2020-11-15 21:52:31.338,1.675801,1.712802,1.724178,1.715927
2020-11-15 21:52:31.355,1.675676,1.711802,1.721178,1.717427
2020-11-15 21:52:31.372,1.676051,1.708427,1.720428,1.717052
2020-11-15 21:52:31.389,1.675926,1.708802,1.714802,1.717177
2020-11-15 21:52:31.406,1.677676,1.710552,1.715677,1.716677
2020-11-15 21:52:31.423,1.676676,1.715177,1.715552,1.716052
2020-11-15 21:52:31.440,1.676551,1.713052,1.718427,1.716052
2020-11-15 21:52:31.457,1.674676,1.713302,1.722428,1.716427
2020-11-15 21:52:31.474,1.676176,1.709677,1.721553,1.717677
2020-11-15 21:52:31.491,1.675801,1.709177,1.718052,1.717052
2020-11-15 21:52:31.508,1.677801,1.709427,1.713927,1.716552
2020-11-15 21:52:31.525,1.677301,1.710052,1.716302,1.716552
2020-11-15 21:52:31.542,1.677676,1.715177,1.716677,1.716802
2020-11-15 21:52:31.559,1.676301,1.713427,1.723678,1.717052
2020-11-15 21:52:31.576,1.675676,1.712427,1.721553,1.716927
2020-11-15 21:52:31.593,1.675676,1.707302,1.720928,1.717177
2020-11-15 21:52:31.610,1.676051,1.709802,1.716927,1.716927
2020-11-15 21:52:31.627,1.678426,1.709552,1.714677,1.716427
2020-11-15 21:52:31.644,1.677051,1.713677,1.715927,1.716052
2020-11-15 21:52:31.661,1.676426,1.713302,1.720177,1.715802
2020-11-15 21:52:31.678,1.675051,1.713552,1.721303,1.715677
2020-11-15 21:52:31.695,1.676176,1.711552,1.720678,1.717052
2020-11-15 21:52:31.712,1.675926,1.707302,1.719677,1.716052
2020-11-15 21:52:31.729,1.676551,1.709302,1.713302,1.716677
2020-11-15 21:52:31.746,1.677551,1.711052,1.715927,1.716052
2020-11-15 21:52:31.763,1.676926,1.714677,1.715677,1.716177
2020-11-15 21:52:31.780,1.676926,1.713427,1.721678,1.716302
2020-11-15 21:52:31.797,1.674926,1.712802,1.720678,1.716802
2020-11-15 21:52:31.814,1.675926,1.708427,1.720928,1.717552
2020-11-15 21:52:31.831,1.676176,1.709427,1.716302,1.717427
2020-11-15 21:52:31.848,1.678301,1.708927,1.716052,1.717052
2020-11-15 21:52:31.865,1.677176,1.711677,1.716177,1.715427
2020-11-15 21:52:31.882,1.677426,1.713677,1.717927,1.716052
2020-11-15 21:52:31.899,1.675801,1.712927,1.724178,1.715677
2020-11-15 21:52:31.916,1.676051,1.712052,1.721428,1.717552
2020-11-15 21:52:31.933,1.675801,1.707927,1.720803,1.717052
2020-11-15 21:52:31.950,1.676801,1.710302,1.714552,1.717302
2020-11-15 21:52:31.967,1.677801,1.710302,1.715677,1.716552
2020-11-15 21:52:31.984,1.677426,1.714427,1.715552,1.715802
2020-11-15 21:52:32.001,1.676926,1.712927,1.718177,1.716677
2020-11-15 21:52:32.018,1.675176,1.713677,1.720803,1.716552
2020-11-15 21:52:32.035,1.675926,1.709552,1.720928,1.717552
2020-11-15 21:52:32.052,1.676051,1.709677,1.718802,1.716552
2020-11-15 21:52:32.069,1.677801,1.708927,1.713552,1.715927
2020-11-15 21:52:32.086,1.676926,1.710552,1.716427,1.715302
2020-11-15 21:52:32.103,1.677176,1.715177,1.717052,1.716302
2020-11-15 21:52:32.122,1.676926,1.712677,1.719552,1.716177
2020-11-15 21:52:32.139,1.675426,1.713052,1.722553,1.716552
2020-11-15 21:52:32.156,1.676426,1.709177,1.721053,1.718052
2020-11-15 21:52:32.173,1.676176,1.709052,1.719677,1.717302
2020-11-15 21:52:32.190,1.676301,1.709552,1.712927,1.717052
2020-11-15 21:52:32.207,1.677551,1.711177,1.715177,1.716427
2020-11-15 21:52:32.224,1.676926,1.715677,1.717552,1.716302
2020-11-15 21:52:32.241,1.675926,1.713052,1.724303,1.716052
2020-11-15 21:52:32.258,1.675551,1.712427,1.721178,1.715427
2020-11-15 21:52:32.275,1.676176,1.707802,1.721303,1.716802
2020-11-15 21:52:32.292,1.676426,1.709177,1.716302,1.716677
2020-11-15 21:52:32.309,1.677926,1.709052,1.715802,1.716177
2020-11-15 21:52:32.326,1.677426,1.710927,1.716302,1.715552
2020-11-15 21:52:32.343,1.677801,1.714552,1.717552,1.715802
2020-11-15 21:52:32.360,1.676301,1.712302,1.725053,1.716802
2020-11-15 21:52:32.377,1.674926,1.710677,1.721428,1.717177
2020-11-15 21:52:32.394,1.676176,1.707802,1.720428,1.716802
2020-11-15 21:52:32.411,1.676051,1.708427,1.714302,1.718052
2020-11-15 21:52:32.428,1.677801,1.710677,1.715552,1.716427
2020-11-15 21:52:32.445,1.677676,1.714677,1.714677,1.715427
2020-11-15 21:52:32.462,1.676676,1.713052,1.722178,1.716052
2020-11-15 21:52:32.479,1.675676,1.713302,1.720803,1.716177
2020-11-15 21:52:32.496,1.675926,1.709677,1.721678,1.717427
2020-11-15 21:52:32.513,1.676301,1.708677,1.718677,1.716302
2020-11-15 21:52:32.530,1.677676,1.709552,1.712802,1.715927
2020-11-15 21:52:32.547,1.677301,1.710177,1.716927,1.715802
2020-11-15 21:52:32.564,1.677801,1.714927,1.716927,1.716802
2020-11-15 21:52:32.581,1.677051,1.712302,1.723303,1.716677
2020-11-15 21:52:32.598,1.675426,1.712177,1.721178,1.716552
2020-11-15 21:52:32.615,1.676176,1.707177,1.720803,1.716302
2020-11-15 21:52:32.632,1.676051,1.709802,1.718052,1.717177
2020-11-15 21:52:32.649,1.677301,1.709177,1.712802,1.717052
2020-11-15 21:52:32.666,1.677426,1.713177,1.715677,1.715677
2020-11-15 21:52:32.683,1.677301,1.713052,1.718927,1.716677
2020-11-15 21:52:32.700,1.676301,1.713177,1.723803,1.716552
2020-11-15 21:52:32.717,1.676176,1.712052,1.721178,1.716427
2020-11-15 21:52:32.734,1.676551,1.706802,1.719927,1.717052
2020-11-15 21:52:32.751,1.676926,1.709177,1.713802,1.716802
2020-11-15 21:52:32.769,1.678176,1.709802,1.716302,1.715927
2020-11-15 21:52:32.786,1.677051,1.715677,1.716177,1.716927
2020-11-15 21:52:32.803,1.676801,1.713052,1.719927,1.716552
2020-11-15 21:52:32.820,1.674926,1.713052,1.721928,1.716427
2020-11-15 21:52:32.837,1.675801,1.707927,1.720803,1.717802
2020-11-15 21:52:32.854,1.675801,1.709677,1.719677,1.717302
2020-11-15 21:52:32.871,1.676426,1.709802,1.712802,1.717302
2020-11-15 21:52:32.888,1.677176,1.711427,1.716052,1.716177
2020-11-15 21:52:32.905,1.677801,1.715802,1.717427,1.716552
2020-11-15 21:52:32.922,1.676051,1.712802,1.724303,1.716052
2020-11-15 21:52:32.939,1.675801,1.712677,1.721928,1.716302
2020-11-15 21:52:32.957,1.676176,1.710427,1.721928,1.717052
2020-11-15 21:52:32.974,1.676051,1.708177,1.719677,1.716802
2020-11-15 21:52:32.991,1.678051,1.709177,1.712677,1.717552
2020-11-15 21:52:33.008,1.677426,1.712302,1.716552,1.716052
2020-11-15 21:52:33.025,1.676926,1.714177,1.716552,1.716302
2020-11-15 21:52:33.042,1.677051,1.713552,1.722678,1.716927
2020-11-15 21:52:33.059,1.674926,1.712052,1.720553,1.717177
2020-11-15 21:52:33.076,1.675426,1.707677,1.720803,1.717302
2020-11-15 21:52:33.093,1.676426,1.709302,1.717802,1.716802
2020-11-15 21:52:33.110,1.677926,1.709677,1.713302,1.717302
2020-11-15 21:52:33.128,1.677051,1.712802,1.716052,1.716552
2020-11-15 21:52:33.145,1.677176,1.713552,1.716427,1.716427
2020-11-15 21:52:33.162,1.676926,1.713302,1.723428,1.716052
2020-11-15 21:52:33.179,1.675051,1.712427,1.721553,1.717677
2020-11-15 21:52:33.196,1.676301,1.706552,1.720803,1.717052
2020-11-15 21:52:33.213,1.675926,1.709802,1.714427,1.716677
2020-11-15 21:52:33.230,1.678676,1.710052,1.716677,1.716802
2020-11-15 21:52:33.247,1.677551,1.713927,1.716177,1.715927
2020-11-15 21:52:33.264,1.677051,1.713177,1.719802,1.716177
2020-11-15 21:52:33.281,1.675801,1.712802,1.723553,1.716427
2020-11-15 21:52:33.298,1.676551,1.708927,1.721053,1.718177
2020-11-15 21:52:33.315,1.676301,1.709302,1.720302,1.717052
2020-11-15 21:52:33.332,1.677426,1.709552,1.713552,1.717427
2020-11-15 21:52:33.349,1.678051,1.710927,1.715927,1.717052
2020-11-15 21:52:33.366,1.677051,1.715927,1.715302,1.715927
2020-11-15 21:52:33.383,1.676301,1.713052,1.720177,1.716427
2020-11-15 21:52:33.400,1.675176,1.712802,1.720553,1.716427
2020-11-15 21:52:33.417,1.675551,1.708802,1.721553,1.717427
2020-11-15 21:52:33.434,1.676676,1.710052,1.715927,1.715427
2020-11-15 21:52:33.451,1.678926,1.709427,1.715802,1.716927
2020-11-15 21:52:33.468,1.677926,1.711302,1.716552,1.716052
2020-11-15 21:52:33.485,1.677801,1.714302,1.717802,1.716177
2020-11-15 21:52:33.502,1.676301,1.713552,1.724553,1.716427
2020-11-15 21:52:33.519,1.676176,1.712302,1.721553,1.717302
2020-11-15 21:52:33.536,1.676551,1.708302,1.720928,1.717052
2020-11-15 21:52:33.553,1.676551,1.709802,1.715177,1.717052
2020-11-15 21:52:33.570,1.678426,1.710302,1.715302,1.717177
2020-11-15 21:52:33.587,1.676926,1.714802,1.716677,1.716052
2020-11-15 21:52:33.604,1.677301,1.713552,1.717177,1.716552
2020-11-15 21:52:33.621,1.675301,1.713427,1.724303,1.716552
2020-11-15 21:52:33.638,1.675426,1.710552,1.721428,1.717677
2020-11-15 21:52:33.655,1.676051,1.708677,1.719677,1.717177
2020-11-15 21:52:33.672,1.677926,1.709677,1.712302,1.716552
2020-11-15 21:52:33.689,1.677926,1.710302,1.717302,1.716302
2020-11-15 21:52:33.706,1.677676,1.714927,1.716552,1.716177
2020-11-15 21:52:33.723,1.677051,1.713052,1.723178,1.716052
2020-11-15 21:52:33.740,1.675301,1.712802,1.721428,1.717302
2020-11-15 21:52:33.757,1.676426,1.706802,1.721178,1.716927
2020-11-15 21:52:33.776,1.676176,1.708552,1.719677,1.716927
2020-11-15 21:52:33.793,1.676551,1.709802,1.713677,1.717052
2020-11-15 21:52:33.810,1.677676,1.710802,1.715927,1.716177
2020-11-15 21:52:33.827,1.677926,1.715927,1.715677,1.715802
2020-11-15 21:52:33.844,1.676926,1.713427,1.719177,1.716177
2020-11-15 21:52:33.861,1.674926,1.713052,1.721678,1.716677
2020-11-15 21:52:33.878,1.676676,1.708677,1.720928,1.717927
2020-11-15 21:52:33.895,1.676801,1.709052,1.717177,1.716927
2020-11-15 21:52:33.912,1.678176,1.708927,1.715177,1.716927
2020-11-15 21:52:33.929,1.677801,1.710677,1.716302,1.715677
2020-11-15 21:52:33.946,1.677426,1.715052,1.717552,1.717677
2020-11-15 21:52:33.963,1.676926,1.713302,1.724053,1.716177
2020-11-15 21:52:33.980,1.675801,1.711802,1.721303,1.717427
2020-11-15 21:52:33.997,1.676301,1.708302,1.721428,1.716677
2020-11-15 21:52:34.014,1.676051,1.709552,1.716177,1.717677
2020-11-15 21:52:34.031,1.678551,1.710302,1.715802,1.716927
2020-11-15 21:52:34.048,1.677176,1.714552,1.715427,1.716052
2020-11-15 21:52:34.065,1.676551,1.712802,1.721303,1.716052
2020-11-15 21:52:34.082,1.675426,1.713052,1.721303,1.716552
2020-11-15 21:52:34.099,1.676676,1.711052,1.721678,1.716927
2020-11-15 21:52:34.116,1.675801,1.707927,1.719927,1.716927
2020-11-15 21:52:34.133,1.678176,1.709177,1.712302,1.716302
2020-11-15 21:52:34.150,1.677926,1.710177,1.715552,1.716052
2020-11-15 21:52:34.167,1.677426,1.714052,1.716427,1.716177
2020-11-15 21:52:34.184,1.676551,1.713427,1.721178,1.716677
2020-11-15 21:52:34.201,1.675051,1.712427,1.720928,1.717052
2020-11-15 21:52:34.218,1.675801,1.708427,1.720428,1.717052
2020-11-15 21:52:34.235,1.675926,1.709177,1.719302,1.717052
2020-11-15 21:52:34.252,1.677426,1.708927,1.712052,1.716302
2020-11-15 21:52:34.269,1.676926,1.712802,1.715802,1.716427
2020-11-15 21:52:34.286,1.677301,1.713302,1.718427,1.716552
2020-11-15 21:52:34.303,1.675801,1.713177,1.724053,1.715802
2020-11-15 21:52:34.320,1.675926,1.711552,1.721303,1.716177
2020-11-15 21:52:34.337,1.676176,1.707677,1.721428,1.717052
2020-11-15 21:52:34.354,1.676801,1.709177,1.714302,1.716677
2020-11-15 21:52:34.371,1.678051,1.709552,1.715677,1.716177
2020-11-15 21:52:34.388,1.677176,1.715552,1.715927,1.716177
2020-11-15 21:52:34.405,1.677176,1.713302,1.718552,1.717052
2020-11-15 21:52:34.422,1.675426,1.713802,1.723053,1.716427
2020-11-15 21:52:34.439,1.675801,1.709802,1.720553,1.717677
2020-11-15 21:52:34.456,1.675426,1.709552,1.718552,1.716552
2020-11-15 21:52:34.473,1.677426,1.710427,1.714677,1.717677
2020-11-15 21:52:34.490,1.677801,1.711052,1.716552,1.717177
2020-11-15 21:52:34.507,1.676926,1.715552,1.717302,1.716052
2020-11-15 21:52:34.524,1.677051,1.713052,1.723178,1.716302
2020-11-15 21:52:34.541,1.675676,1.712552,1.721303,1.716302
2020-11-15 21:52:34.558,1.675926,1.707802,1.721428,1.716927
2020-11-15 21:52:34.575,1.676301,1.709052,1.717177,1.717677
2020-11-15 21:52:34.592,1.678301,1.709552,1.712802,1.717302
2020-11-15 21:52:34.611,1.677301,1.710677,1.715427,1.715427
2020-11-15 21:52:34.628,1.676926,1.715052,1.715927,1.717177
2020-11-15 21:52:34.645,1.677551,1.713177,1.720678,1.716552
2020-11-15 21:52:34.662,1.675426,1.712552,1.720553,1.716052
2020-11-15 21:52:34.679,1.675926,1.707927,1.720678,1.717552
2020-11-15 21:52:34.696,1.675926,1.709302,1.716677,1.716677
2020-11-15 21:52:34.713,1.678676,1.709427,1.715802,1.716427
2020-11-15 21:52:34.730,1.676801,1.712302,1.716552,1.715552
2020-11-15 21:52:34.747,1.677426,1.714177,1.718052,1.715802
2020-11-15 21:52:34.764,1.675676,1.712677,1.724678,1.715677
2020-11-15 21:52:34.781,1.675676,1.711177,1.720678,1.718052
2020-11-15 21:52:34.798,1.675801,1.708177,1.721303,1.717052
2020-11-15 21:52:34.815,1.676676,1.710177,1.714677,1.717052
2020-11-15 21:52:34.832,1.678426,1.710677,1.715927,1.716927
2020-11-15 21:52:34.849,1.677551,1.715052,1.716052,1.717177
2020-11-15 21:52:34.866,1.676926,1.713177,1.717677,1.716052
2020-11-15 21:52:34.883,1.675176,1.713302,1.721803,1.716552
2020-11-15 21:52:34.900,1.676301,1.709802,1.721178,1.717177
2020-11-15 21:52:34.917,1.676051,1.709052,1.719052,1.717552
2020-11-15 21:52:34.934,1.677926,1.709427,1.713052,1.717052
2020-11-15 21:52:34.951,1.677926,1.710177,1.716552,1.716052
2020-11-15 21:52:34.968,1.677426,1.715052,1.716802,1.716552
2020-11-15 21:52:34.985,1.676801,1.713302,1.723053,1.715552
2020-11-15 21:52:35.002,1.675426,1.712052,1.721303,1.716927
2020-11-15 21:52:35.019,1.676426,1.707677,1.720803,1.717302
2020-11-15 21:52:35.036,1.676676,1.710552,1.717927,1.717302
2020-11-15 21:52:35.053,1.677801,1.709552,1.713302,1.716927
2020-11-15 21:52:35.070,1.677551,1.714052,1.715927,1.715552
2020-11-15 21:52:35.087,1.677176,1.712927,1.718927,1.716802
2020-11-15 21:52:35.104,1.675676,1.712427,1.724053,1.715802
2020-11-15 21:52:35.121,1.676176,1.711677,1.720803,1.716552
2020-11-15 21:52:35.138,1.676176,1.706802,1.719677,1.716302
2020-11-15 21:52:35.155,1.676801,1.710052,1.713552,1.716927
2020-11-15 21:52:35.172,1.677551,1.709302,1.715802,1.716302
2020-11-15 21:52:35.189,1.676926,1.715927,1.716177,1.716427
2020-11-15 21:52:35.206,1.677176,1.713552,1.720553,1.716677
2020-11-15 21:52:35.223,1.675051,1.713427,1.722303,1.716427
2020-11-15 21:52:35.240,1.675676,1.708552,1.720928,1.718177
2020-11-15 21:52:35.257,1.675551,1.709427,1.720052,1.717177
2020-11-15 21:52:35.274,1.677176,1.709552,1.713302,1.717052
2020-11-15 21:52:35.291,1.677176,1.711052,1.716677,1.716302
2020-11-15 21:52:35.308,1.676801,1.714927,1.716802,1.716427
2020-11-15 21:52:35.325,1.676051,1.712802,1.724428,1.716177
2020-11-15 21:52:35.342,1.676051,1.712677,1.721803,1.716052
2020-11-15 21:52:35.359,1.675801,1.708427,1.721553,1.716927
2020-11-15 21:52:35.376,1.676676,1.708802,1.716302,1.716927
2020-11-15 21:52:35.393,1.678676,1.709177,1.716052,1.717177
2020-11-15 21:52:35.411,1.677051,1.711552,1.716552,1.715302
2020-11-15 21:52:35.429,1.677801,1.714927,1.716427,1.716177
2020-11-15 21:52:35.446,1.676426,1.713052,1.722553,1.716427
2020-11-15 21:52:35.463,1.674926,1.713052,1.721678,1.715552
2020-11-15 21:52:35.480,1.675801,1.709302,1.721303,1.717052
2020-11-15 21:52:35.497,1.676176,1.709552,1.718677,1.717302
2020-11-15 21:52:35.514,1.678301,1.709677,1.712802,1.717052
2020-11-15 21:52:35.531,1.677301,1.713427,1.715927,1.715927
2020-11-15 21:52:35.548,1.676926,1.713052,1.716677,1.716802
2020-11-15 21:52:35.565,1.677301,1.713677,1.723053,1.716302
2020-11-15 21:52:35.582,1.674801,1.711802,1.721053,1.717177
2020-11-15 21:52:35.599,1.676051,1.706802,1.720928,1.716802
2020-11-15 21:52:35.616,1.676551,1.709427,1.715052,1.716802
2020-11-15 21:52:35.633,1.678176,1.709427,1.715802,1.716177
2020-11-15 21:52:35.650,1.677426,1.713302,1.716177,1.715177
2020-11-15 21:52:35.667,1.677551,1.713052,1.720177,1.716927
2020-11-15 21:52:35.684,1.675926,1.713177,1.723553,1.716177
2020-11-15 21:52:35.701,1.675801,1.709052,1.720803,1.718552
2020-11-15 21:52:35.718,1.676426,1.709927,1.719927,1.717677
2020-11-15 21:52:35.735,1.677676,1.709177,1.713302,1.716927
2020-11-15 21:52:35.752,1.677426,1.711052,1.715677,1.716677
2020-11-15 21:52:35.769,1.677426,1.715302,1.717302,1.716177
2020-11-15 21:52:35.786,1.676426,1.712802,1.723928,1.715927
2020-11-15 21:52:35.803,1.675676,1.713677,1.721803,1.716302
2020-11-15 21:52:35.820,1.676176,1.708427,1.721553,1.717802
2020-11-15 21:52:35.837,1.676426,1.708677,1.717802,1.717052
2020-11-15 21:52:35.854,1.678301,1.709552,1.715052,1.716802
2020-11-15 21:52:35.871,1.677176,1.714427,1.716177,1.716052
2020-11-15 21:52:35.888,1.677676,1.713802,1.717052,1.716552
2020-11-15 21:52:35.905,1.676551,1.713177,1.723928,1.716552
2020-11-15 21:52:35.922,1.676176,1.711927,1.721053,1.717552
2020-11-15 21:52:35.939,1.676051,1.707302,1.720302,1.717427
2020-11-15 21:52:35.956,1.676426,1.710052,1.713677,1.716927
2020-11-15 21:52:35.973,1.677551,1.709927,1.716427,1.716552
2020-11-15 21:52:35.990,1.677426,1.714177,1.716052,1.716302
2020-11-15 21:52:36.007,1.677051,1.713177,1.721428,1.716302
2020-11-15 21:52:36.024,1.675676,1.712802,1.721303,1.716302
2020-11-15 21:52:36.041,1.676051,1.710427,1.722178,1.717427
2020-11-15 21:52:36.058,1.675801,1.709302,1.720052,1.717302
2020-11-15 21:52:36.075,1.677551,1.709927,1.713177,1.716802
2020-11-15 21:52:36.092,1.677426,1.711927,1.715677,1.716177
2020-11-15 21:52:36.109,1.677176,1.715177,1.716302,1.716927
2020-11-15 21:52:36.126,1.676426,1.712427,1.721803,1.716677
2020-11-15 21:52:36.143,1.674551,1.712802,1.721053,1.716802
2020-11-15 21:52:36.160,1.676051,1.707802,1.721553,1.717427
2020-11-15 21:52:36.177,1.676676,1.708802,1.715427,1.716927
2020-11-15 21:52:36.194,1.678426,1.709302,1.716427,1.716802
2020-11-15 21:52:36.211,1.677301,1.712302,1.716052,1.716177
2020-11-15 21:52:36.228,1.677551,1.712802,1.717802,1.715552
2020-11-15 21:52:36.245,1.675801,1.712677,1.723428,1.716552
2020-11-15 21:52:36.264,1.675926,1.712552,1.721428,1.717427
2020-11-15 21:52:36.281,1.676551,1.707927,1.721053,1.717302
2020-11-15 21:52:36.298,1.676176,1.709802,1.717677,1.716927
2020-11-15 21:52:36.315,1.677676,1.709802,1.713552,1.716802
2020-11-15 21:52:36.332,1.677176,1.713927,1.715677,1.716052
2020-11-15 21:52:36.349,1.676051,1.712802,1.719177,1.716677
2020-11-15 21:52:36.366,1.676051,1.713302,1.723053,1.716427
2020-11-15 21:52:36.383,1.676176,1.711802,1.720928,1.716552
2020-11-15 21:52:36.400,1.676176,1.707552,1.720803,1.716302
2020-11-15 21:52:36.417,1.677301,1.709552,1.714302,1.716927
2020-11-15 21:52:36.434,1.678051,1.710052,1.716052,1.716427
2020-11-15 21:52:36.451,1.677426,1.715802,1.716177,1.716302
2020-11-15 21:52:36.468,1.677176,1.713427,1.720553,1.716052
2020-11-15 21:52:36.485,1.675301,1.713302,1.721553,1.716552
2020-11-15 21:52:36.502,1.675551,1.708802,1.721178,1.717427
2020-11-15 21:52:36.519,1.675301,1.708677,1.719177,1.717302
2020-11-15 21:52:36.536,1.676801,1.710927,1.712927,1.717552
2020-11-15 21:52:36.553,1.677676,1.711427,1.715802,1.716052
2020-11-15 21:52:36.570,1.677301,1.715552,1.716302,1.716927
2020-11-15 21:52:36.587,1.677051,1.712802,1.720803,1.716677
2020-11-15 21:52:36.604,1.674801,1.712427,1.721053,1.717427
2020-11-15 21:52:36.621,1.675801,1.708677,1.721803,1.717677
2020-11-15 21:52:36.638,1.677301,1.709677,1.716927,1.717177
2020-11-15 21:52:36.655,1.678801,1.709927,1.716427,1.716927
2020-11-15 21:52:36.672,1.678051,1.711677,1.716802,1.715552
2020-11-15 21:52:36.689,1.677051,1.714052,1.718177,1.716427
2020-11-15 21:52:36.706,1.676426,1.713802,1.725303,1.716302
2020-11-15 21:52:36.723,1.676426,1.711302,1.720928,1.717677
2020-11-15 21:52:36.740,1.676051,1.708427,1.720678,1.717052
2020-11-15 21:52:36.757,1.676926,1.709927,1.714802,1.716927
2020-11-15 21:52:36.774,1.677551,1.710552,1.716177,1.716802
2020-11-15 21:52:36.791,1.676926,1.714802,1.716052,1.716427
2020-11-15 21:52:36.808,1.677051,1.713177,1.717177,1.717052
2020-11-15 21:52:36.825,1.675301,1.713677,1.720803,1.716302
2020-11-15 21:52:36.843,1.676051,1.710802,1.721678,1.717802
2020-11-15 21:52:36.860,1.676676,1.709302,1.719552,1.716427
2020-11-15 21:52:36.877,1.678176,1.709302,1.712802,1.717052
2020-11-15 21:52:36.894,1.677301,1.709927,1.716802,1.715677
2020-11-15 21:52:36.911,1.677301,1.714302,1.716927,1.715802
2020-11-15 21:52:36.928,1.677176,1.713802,1.723178,1.716427
2020-11-15 21:52:36.945,1.675551,1.712552,1.721428,1.717302
2020-11-15 21:52:36.962,1.676551,1.708177,1.721053,1.717302
2020-11-15 21:52:36.979,1.675301,1.709802,1.718302,1.716927
2020-11-15 21:52:36.996,1.677801,1.709552,1.713802,1.716802
2020-11-15 21:52:37.013,1.677301,1.712552,1.715927,1.715927
2020-11-15 21:52:37.030,1.677551,1.713052,1.718552,1.717302
2020-11-15 21:52:37.047,1.676176,1.713177,1.724053,1.716677
2020-11-15 21:52:37.064,1.676176,1.712052,1.721053,1.715927
2020-11-15 21:52:37.082,1.676176,1.708302,1.721928,1.717302
2020-11-15 21:52:37.099,1.676426,1.709552,1.717802,1.716677
2020-11-15 21:52:37.116,1.678301,1.709302,1.714677,1.716552
2020-11-15 21:52:37.133,1.677301,1.714177,1.716927,1.715802
2020-11-15 21:52:37.150,1.677426,1.712802,1.717552,1.716677
2020-11-15 21:52:37.167,1.676426,1.713552,1.723928,1.716677
2020-11-15 21:52:37.184,1.676551,1.712177,1.720928,1.717177
2020-11-15 21:52:37.201,1.676176,1.707302,1.721178,1.717427
2020-11-15 21:52:37.218,1.675926,1.709927,1.715427,1.716677
2020-11-15 21:52:37.235,1.677801,1.710427,1.716927,1.716552
2020-11-15 21:52:37.252,1.677676,1.714552,1.715927,1.716302
2020-11-15 21:52:37.269,1.677426,1.713927,1.721178,1.716302
2020-11-15 21:52:37.286,1.675426,1.712927,1.721303,1.715802
2020-11-15 21:52:37.303,1.676051,1.711177,1.721803,1.716677
2020-11-15 21:52:37.320,1.676676,1.707552,1.719927,1.716927
2020-11-15 21:52:37.337,1.677301,1.709802,1.713052,1.717177
2020-11-15 21:52:37.354,1.677801,1.711802,1.716427,1.716177
2020-11-15 21:52:37.371,1.677676,1.714927,1.716927,1.717552
2020-11-15 21:52:37.388,1.677301,1.713427,1.721553,1.716427
2020-11-15 21:52:37.405,1.675051,1.712302,1.721303,1.717177
2020-11-15 21:52:37.422,1.675676,1.708302,1.721178,1.717802
2020-11-15 21:52:37.439,1.675676,1.709552,1.715177,1.717427
2020-11-15 21:52:37.456,1.678801,1.709427,1.716552,1.717052
2020-11-15 21:52:37.473,1.676926,1.712052,1.716677,1.715927
2020-11-15 21:52:37.490,1.677926,1.713802,1.718302,1.716302
2020-11-15 21:52:37.507,1.675801,1.713302,1.725053,1.716677
2020-11-15 21:52:37.524,1.677051,1.712677,1.720678,1.716427
2020-11-15 21:52:37.541,1.676551,1.706177,1.720678,1.717177
2020-11-15 21:52:37.558,1.676176,1.710052,1.714302,1.717177
2020-11-15 21:52:37.575,1.677926,1.710677,1.715552,1.716552
2020-11-15 21:52:37.592,1.677801,1.715552,1.715802,1.716427
2020-11-15 21:52:37.609,1.676926,1.713302,1.718677,1.716552
2020-11-15 21:52:37.626,1.675426,1.713802,1.722803,1.716927
2020-11-15 21:52:37.643,1.675801,1.709677,1.720678,1.718177
2020-11-15 21:52:37.660,1.676676,1.709302,1.718802,1.716927
2020-11-15 21:52:37.677,1.677551,1.709427,1.713927,1.716552
2020-11-15 21:52:37.694,1.677426,1.711177,1.716177,1.716302
2020-11-15 21:52:37.712,1.676426,1.715427,1.715052,1.716427
2020-11-15 21:52:37.729,1.676676,1.712802,1.722928,1.716302
2020-11-15 21:52:37.746,1.675676,1.712677,1.721428,1.716677
2020-11-15 21:52:37.763,1.676301,1.708927,1.721178,1.717927
2020-11-15 21:52:37.780,1.676176,1.709052,1.717927,1.716802
2020-11-15 21:52:37.797,1.677801,1.708927,1.714052,1.717052
2020-11-15 21:52:37.814,1.677551,1.710927,1.716552,1.715677
2020-11-15 21:52:37.831,1.677301,1.714927,1.717802,1.716427
2020-11-15 21:52:37.848,1.676676,1.712677,1.723678,1.716302
2020-11-15 21:52:37.865,1.675551,1.711927,1.721178,1.717802
2020-11-15 21:52:37.882,1.676176,1.707302,1.721678,1.717427
2020-11-15 21:52:37.899,1.676926,1.709052,1.719927,1.717052
2020-11-15 21:52:37.917,1.677551,1.710177,1.712552,1.717052
2020-11-15 21:52:37.934,1.677301,1.711927,1.715177,1.716052
2020-11-15 21:52:37.951,1.676926,1.715052,1.717802,1.716427
2020-11-15 21:52:37.968,1.676051,1.713427,1.724553,1.716427
2020-11-15 21:52:37.985,1.675926,1.712052,1.721178,1.716302
2020-11-15 21:52:38.003,1.676426,1.708177,1.721303,1.717177
2020-11-15 21:52:38.020,1.676676,1.709177,1.715052,1.716802
2020-11-15 21:52:38.037,1.678551,1.709677,1.716427,1.716052
2020-11-15 21:52:38.054,1.677551,1.714927,1.716302,1.716302
2020-11-15 21:52:38.070,1.677551,1.713177,1.717802,1.716427
2020-11-15 21:52:38.088,1.676051,1.713302,1.724678,1.716552
2020-11-15 21:52:38.105,1.676051,1.711302,1.720928,1.717677
2020-11-15 21:52:38.122,1.675926,1.708552,1.720803,1.717052
2020-11-15 21:52:38.139,1.676176,1.710052,1.714927,1.717552
2020-11-15 21:52:38.156,1.678426,1.710552,1.715802,1.716427
2020-11-15 21:52:38.173,1.677051,1.714802,1.717177,1.716677
2020-11-15 21:52:38.190,1.677051,1.713427,1.722553,1.716677
2020-11-15 21:52:38.207,1.675801,1.713677,1.721803,1.716052
2020-11-15 21:52:38.224,1.676551,1.709427,1.721303,1.717802
2020-11-15 21:52:38.241,1.676801,1.709427,1.719552,1.716802
2020-11-15 21:52:38.258,1.677926,1.709427,1.713052,1.716427
2020-11-15 21:52:38.275,1.677676,1.710177,1.717052,1.716302
2020-11-15 21:52:38.292,1.677551,1.715302,1.717427,1.716677
2020-11-15 21:52:38.309,1.677301,1.713427,1.722928,1.717052
2020-11-15 21:52:38.326,1.675676,1.712427,1.721178,1.716677
2020-11-15 21:52:38.343,1.676051,1.707677,1.721053,1.717427
2020-11-15 21:52:38.360,1.676176,1.710052,1.717677,1.717177
2020-11-15 21:52:38.377,1.677676,1.710052,1.713802,1.716927
2020-11-15 21:52:38.394,1.677301,1.713927,1.715802,1.715552
2020-11-15 21:52:38.411,1.677426,1.713052,1.719052,1.716927
2020-11-15 21:52:38.428,1.675051,1.713177,1.723803,1.716427
2020-11-15 21:52:38.445,1.676051,1.711677,1.721178,1.716677
2020-11-15 21:52:38.462,1.676301,1.707177,1.720052,1.716927
2020-11-15 21:52:38.479,1.677176,1.708927,1.714427,1.716927
2020-11-15 21:52:38.496,1.677801,1.709052,1.715927,1.716427
2020-11-15 21:52:38.513,1.677426,1.713927,1.716427,1.716302
2020-11-15 21:52:38.530,1.677301,1.713177,1.720302,1.716177
2020-11-15 21:52:38.547,1.675426,1.713052,1.721428,1.716427
2020-11-15 21:52:38.564,1.676176,1.708552,1.721178,1.717552
2020-11-15 21:52:38.581,1.675676,1.710177,1.719552,1.717177
2020-11-15 21:52:38.598,1.676801,1.709552,1.712927,1.717302
2020-11-15 21:52:38.615,1.677051,1.711177,1.716552,1.715802
2020-11-15 21:52:38.632,1.677051,1.715052,1.717802,1.716302
2020-11-15 21:52:38.649,1.676051,1.712927,1.724803,1.716052
2020-11-15 21:52:38.666,1.676051,1.712427,1.721428,1.716302
2020-11-15 21:52:38.683,1.676676,1.707677,1.721053,1.717552
2020-11-15 21:52:38.700,1.676676,1.709427,1.716552,1.715927
2020-11-15 21:52:38.717,1.678801,1.709177,1.716552,1.716427
2020-11-15 21:52:38.736,1.677801,1.712052,1.716552,1.716177
2020-11-15 21:52:38.753,1.677301,1.714802,1.715677,1.716427
2020-11-15 21:52:38.770,1.676926,1.713427,1.722428,1.716302
2020-11-15 21:52:38.787,1.675176,1.712302,1.721678,1.716927
2020-11-15 21:52:38.804,1.676051,1.708302,1.720928,1.717427
2020-11-15 21:52:38.821,1.675676,1.709552,1.718677,1.717302
2020-11-15 21:52:38.838,1.678676,1.709552,1.716427,1.716927
2020-11-15 21:52:38.855,1.677551,1.712552,1.716302,1.716302
2020-11-15 21:52:38.872,1.677551,1.713052,1.718552,1.716177
2020-11-15 21:52:38.889,1.676051,1.713052,1.725053,1.716302
2020-11-15 21:52:38.906,1.676051,1.711927,1.720803,1.716927
2020-11-15 21:52:38.923,1.676426,1.707552,1.720928,1.717677
2020-11-15 21:52:38.940,1.677426,1.709802,1.715052,1.717052
2020-11-15 21:52:38.957,1.678301,1.710677,1.716177,1.717052
2020-11-15 21:52:38.974,1.677301,1.714802,1.715927,1.716302
2020-11-15 21:52:38.991,1.677176,1.712927,1.718927,1.716177
2020-11-15 21:52:39.008,1.675426,1.713177,1.723553,1.716927
2020-11-15 21:52:39.025,1.676051,1.710052,1.720678,1.717552
2020-11-15 21:52:39.042,1.676676,1.710052,1.718427,1.717427
2020-11-15 21:52:39.059,1.677551,1.709552,1.713552,1.716927
2020-11-15 21:52:39.076,1.678176,1.710302,1.716927,1.715927
2020-11-15 21:52:39.093,1.677676,1.715677,1.717052,1.716177
2020-11-15 21:52:39.110,1.676926,1.712677,1.723428,1.715927
2020-11-15 21:52:39.127,1.675426,1.712677,1.721428,1.717427
2020-11-15 21:52:39.144,1.676176,1.707552,1.721303,1.717177
2020-11-15 21:52:39.161,1.676426,1.709677,1.717177,1.716802
2020-11-15 21:52:39.178,1.677801,1.709927,1.714927,1.716802
2020-11-15 21:52:39.195,1.677801,1.713927,1.716302,1.716427
2020-11-15 21:52:39.212,1.677301,1.713302,1.716677,1.716177
2020-11-15 21:52:39.229,1.676301,1.713427,1.722678,1.715927
2020-11-15 21:52:39.246,1.676051,1.711927,1.721178,1.717677
2020-11-15 21:52:39.263,1.676676,1.707052,1.719927,1.717177
2020-11-15 21:52:39.280,1.677301,1.709177,1.713677,1.716927
2020-11-15 21:52:39.297,1.678301,1.709677,1.716052,1.716427
2020-11-15 21:52:39.314,1.677926,1.714177,1.716552,1.716177
2020-11-15 21:52:39.331,1.677176,1.712802,1.720928,1.715552
2020-11-15 21:52:39.348,1.675801,1.712427,1.721303,1.716552
2020-11-15 21:52:39.365,1.676176,1.708802,1.721428,1.717427
2020-11-15 21:52:39.382,1.675801,1.709552,1.719927,1.717177
2020-11-15 21:52:39.399,1.677426,1.709552,1.712552,1.717052
2020-11-15 21:52:39.416,1.677051,1.711802,1.716427,1.716427
2020-11-15 21:52:39.433,1.677176,1.715302,1.715927,1.715677
2020-11-15 21:52:39.450,1.676676,1.713177,1.724178,1.716427
2020-11-15 21:52:39.467,1.676301,1.712802,1.721553,1.716802
2020-11-15 21:52:39.484,1.676426,1.708177,1.721178,1.716927
2020-11-15 21:52:39.501,1.677051,1.709302,1.715927,1.716552
2020-11-15 21:52:39.518,1.678551,1.709552,1.716177,1.716802
2020-11-15 21:52:39.535,1.677926,1.714427,1.716677,1.715552
2020-11-15 21:52:39.552,1.677301,1.714302,1.717052,1.716302
2020-11-15 21:52:39.570,1.676801,1.713552,1.723178,1.716677
2020-11-15 21:52:39.587,1.675051,1.712427,1.721553,1.717302
2020-11-15 21:52:39.604,1.676801,1.707927,1.720928,1.716802
2020-11-15 21:52:39.621,1.676176,1.709802,1.718302,1.716927
2020-11-15 21:52:39.638,1.677426,1.709677,1.716427,1.716552
2020-11-15 21:52:39.655,1.676926,1.712802,1.716677,1.715677
2020-11-15 21:52:39.672,1.677176,1.713427,1.718802,1.716552
2020-11-15 21:52:39.689,1.675551,1.712802,1.723928,1.716302
2020-11-15 21:52:39.706,1.675926,1.711427,1.721053,1.716552
2020-11-15 21:52:39.723,1.676676,1.706927,1.720803,1.717677
2020-11-15 21:52:39.740,1.676926,1.709927,1.714927,1.717177
2020-11-15 21:52:39.758,1.677676,1.710927,1.715677,1.716552
2020-11-15 21:52:39.775,1.677176,1.715677,1.715802,1.716802
2020-11-15 21:52:39.791,1.677801,1.712677,1.719552,1.716552
2020-11-15 21:52:39.809,1.675176,1.713427,1.722803,1.716802
2020-11-15 21:52:39.826,1.675801,1.709927,1.720928,1.717802
2020-11-15 21:52:39.843,1.676551,1.710177,1.718427,1.717552
2020-11-15 21:52:39.860,1.678426,1.709677,1.714427,1.716427
2020-11-15 21:52:39.877,1.677426,1.711177,1.716427,1.716302
2020-11-15 21:52:39.894,1.677926,1.715677,1.717302,1.715927
2020-11-15 21:52:39.911,1.676551,1.712677,1.723678,1.716052
2020-11-15 21:52:39.928,1.675801,1.711927,1.721428,1.717552
2020-11-15 21:52:39.945,1.675926,1.707052,1.721303,1.716802
2020-11-15 21:52:39.962,1.677176,1.709927,1.717302,1.717427
2020-11-15 21:52:39.979,1.677676,1.709677,1.715427,1.717302
2020-11-15 21:52:39.996,1.677301,1.714427,1.715802,1.715427
2020-11-15 21:52:40.013,1.677676,1.713427,1.718052,1.716052
2020-11-15 21:52:40.030,1.676676,1.713052,1.724053,1.716552
2020-11-15 21:52:40.047,1.676051,1.711427,1.721178,1.717677
2020-11-15 21:52:40.064,1.676301,1.707052,1.721303,1.717052
2020-11-15 21:52:40.081,1.676301,1.710177,1.715677,1.717552
2020-11-15 21:52:40.098,1.678426,1.710177,1.715677,1.716677
2020-11-15 21:52:40.115,1.676801,1.714427,1.716302,1.716552
2020-11-15 21:52:40.132,1.677301,1.713677,1.721178,1.716302
2020-11-15 21:52:40.149,1.675176,1.713177,1.721428,1.716177
2020-11-15 21:52:40.166,1.676176,1.711552,1.722178,1.716802
2020-11-15 21:52:40.183,1.675926,1.707677,1.720052,1.716927
2020-11-15 21:52:40.200,1.677301,1.709052,1.712802,1.716927
2020-11-15 21:52:40.217,1.677926,1.711802,1.715927,1.716052
2020-11-15 21:52:40.234,1.677551,1.714677,1.716552,1.716302
2020-11-15 21:52:40.251,1.677176,1.713302,1.722053,1.716552
2020-11-15 21:52:40.268,1.675176,1.712177,1.721803,1.717177
2020-11-15 21:52:40.285,1.676051,1.708177,1.721178,1.717677
2020-11-15 21:52:40.302,1.675676,1.709552,1.718927,1.716802
2020-11-15 21:52:40.319,1.677551,1.710177,1.716677,1.717677
2020-11-15 21:52:40.336,1.677551,1.712177,1.716927,1.716177
2020-11-15 21:52:40.353,1.677926,1.713427,1.718427,1.715927
2020-11-15 21:52:40.370,1.675176,1.712552,1.724803,1.715802
2020-11-15 21:52:40.388,1.675551,1.713052,1.721428,1.716177
2020-11-15 21:52:40.406,1.676176,1.708427,1.721053,1.717052
2020-11-15 21:52:40.423,1.676551,1.709677,1.718677,1.717052
2020-11-15 21:52:40.440,1.678051,1.709677,1.713927,1.717427
2020-11-15 21:52:40.457,1.677926,1.713052,1.715427,1.716177
2020-11-15 21:52:40.474,1.677301,1.713552,1.717052,1.716927
2020-11-15 21:52:40.491,1.676801,1.713677,1.722678,1.716802
2020-11-15 21:52:40.508,1.675301,1.711927,1.721928,1.717177
2020-11-15 21:52:40.525,1.676301,1.706927,1.720052,1.717177
2020-11-15 21:52:40.542,1.677676,1.709927,1.714177,1.716677
2020-11-15 21:52:40.559,1.677551,1.709677,1.716177,1.717177
2020-11-15 21:52:40.576,1.677426,1.713927,1.716302,1.715302
2020-11-15 21:52:40.593,1.677176,1.713177,1.719802,1.716927
2020-11-15 21:52:40.610,1.675051,1.713427,1.722803,1.717052
2020-11-15 21:52:40.627,1.676176,1.709177,1.721053,1.717802
2020-11-15 21:52:40.644,1.676301,1.710052,1.719177,1.717052
2020-11-15 21:52:40.661,1.677051,1.709552,1.713552,1.717427
2020-11-15 21:52:40.678,1.677676,1.711052,1.715677,1.716052
2020-11-15 21:52:40.695,1.677301,1.716052,1.715802,1.716177
2020-11-15 21:52:40.712,1.677176,1.713302,1.719802,1.716302
2020-11-15 21:52:40.729,1.676051,1.712677,1.721178,1.716552
2020-11-15 21:52:40.746,1.676426,1.708427,1.721678,1.717927
2020-11-15 21:52:40.763,1.676176,1.709927,1.716677,1.716802
2020-11-15 21:52:40.780,1.678551,1.709677,1.715427,1.716552
2020-11-15 21:52:40.797,1.676801,1.711552,1.716552,1.715427
2020-11-15 21:52:40.814,1.678801,1.714677,1.718052,1.716427
2020-11-15 21:52:40.831,1.676301,1.713302,1.724803,1.716552
2020-11-15 21:52:40.848,1.676676,1.711177,1.720928,1.717427
2020-11-15 21:52:40.865,1.675926,1.708552,1.721553,1.717552
2020-11-15 21:52:40.882,1.676551,1.709677,1.715427,1.717302
2020-11-15 21:52:40.899,1.677926,1.710802,1.715677,1.717177
2020-11-15 21:52:40.916,1.676801,1.714302,1.716052,1.716427
2020-11-15 21:52:40.933,1.677176,1.713552,1.717677,1.717177
2020-11-15 21:52:40.950,1.675551,1.713677,1.721553,1.716427
2020-11-15 21:52:40.967,1.675926,1.710427,1.721303,1.717552
2020-11-15 21:52:40.984,1.676051,1.708802,1.720052,1.717052
2020-11-15 21:52:41.001,1.677801,1.709927,1.712927,1.717302
2020-11-15 21:52:41.018,1.677176,1.710177,1.716677,1.716052
2020-11-15 21:52:41.035,1.678051,1.714552,1.716677,1.716677
2020-11-15 21:52:41.052,1.677551,1.713552,1.723303,1.716677
2020-11-15 21:52:41.069,1.675676,1.712552,1.721678,1.716802
2020-11-15 21:52:41.086,1.675926,1.708052,1.721053,1.717677
2020-11-15 21:52:41.103,1.676176,1.709427,1.718802,1.717302
2020-11-15 21:52:41.120,1.676926,1.709677,1.712927,1.717052
2020-11-15 21:52:41.137,1.677551,1.712927,1.715802,1.716302
2020-11-15 21:52:41.154,1.677551,1.713427,1.716302,1.716677
2020-11-15 21:52:41.171,1.675676,1.713427,1.724928,1.716302
2020-11-15 21:52:41.188,1.676051,1.712052,1.720803,1.717177
2020-11-15 21:52:41.205,1.676176,1.708177,1.721803,1.718427
2020-11-15 21:52:41.224,1.677301,1.709927,1.718177,1.716802
2020-11-15 21:52:41.241,1.678051,1.709927,1.714427,1.716927
2020-11-15 21:52:41.258,1.677301,1.710927,1.716677,1.715677
2020-11-15 21:52:41.275,1.677801,1.715802,1.717177,1.716552
2020-11-15 21:52:41.292,1.676801,1.712927,1.723678,1.716427
2020-11-15 21:52:41.309,1.675676,1.711927,1.721928,1.717427
2020-11-15 21:52:41.326,1.676051,1.707552,1.721428,1.716802
2020-11-15 21:52:41.343,1.676051,1.710052,1.716802,1.717427
2020-11-15 21:52:41.360,1.677801,1.710552,1.715177,1.717552
2020-11-15 21:52:41.377,1.677551,1.714552,1.716302,1.716052
2020-11-15 21:52:41.394,1.677051,1.713677,1.720177,1.716302
2020-11-15 21:52:41.411,1.675801,1.713552,1.722303,1.716302
2020-11-15 21:52:41.428,1.676301,1.711302,1.721428,1.717302
2020-11-15 21:52:41.445,1.676051,1.708177,1.720177,1.717052
2020-11-15 21:52:41.462,1.678051,1.709802,1.713552,1.716302
2020-11-15 21:52:41.479,1.677301,1.709927,1.716427,1.716552
2020-11-15 21:52:41.496,1.677301,1.715552,1.716802,1.716427
2020-11-15 21:52:41.513,1.677051,1.713052,1.721178,1.716177
2020-11-15 21:52:41.530,1.675426,1.713052,1.720678,1.717177
2020-11-15 21:52:41.547,1.675801,1.709427,1.721178,1.717552
2020-11-15 21:52:41.564,1.676051,1.709677,1.719302,1.717427
2020-11-15 21:52:41.581,1.677926,1.709677,1.716552,1.716802
2020-11-15 21:52:41.598,1.677676,1.712177,1.716552,1.717052
2020-11-15 21:52:41.615,1.677676,1.714427,1.717927,1.716302
2020-11-15 21:52:41.632,1.675926,1.713427,1.724928,1.715177
2020-11-15 21:52:41.649,1.676301,1.712677,1.721928,1.716552
2020-11-15 21:52:41.666,1.676551,1.707677,1.720803,1.717052
2020-11-15 21:52:41.683,1.676551,1.710177,1.715802,1.717802
2020-11-15 21:52:41.700,1.678426,1.710802,1.716302,1.717302
2020-11-15 21:52:41.717,1.677676,1.714552,1.716552,1.716177
2020-11-15 21:52:41.734,1.677301,1.713677,1.718302,1.716802
2020-11-15 21:52:41.751,1.676051,1.714052,1.724678,1.716552
2020-11-15 21:52:41.768,1.675676,1.710427,1.720177,1.717552
2020-11-15 21:52:41.785,1.676426,1.708802,1.719427,1.717552
2020-11-15 21:52:41.802,1.676176,1.709427,1.712802,1.717302
2020-11-15 21:52:41.819,1.677176,1.710802,1.716427,1.716802
2020-11-15 21:52:41.836,1.677551,1.716177,1.717052,1.716302
2020-11-15 21:52:41.853,1.676301,1.713552,1.718302,1.717052
2020-11-15 21:52:41.871,1.674676,1.713552,1.723678,1.716927
2020-11-15 21:52:41.888,1.676301,1.710177,1.721428,1.717927
2020-11-15 21:52:41.905,1.676551,1.710302,1.720678,1.717552
2020-11-15 21:52:41.922,1.677051,1.709552,1.714177,1.717177
2020-11-15 21:52:41.939,1.677801,1.711552,1.715802,1.716052
2020-11-15 21:52:41.956,1.676801,1.715552,1.715677,1.716177
2020-11-15 21:52:41.973,1.676551,1.713177,1.724053,1.716427
2020-11-15 21:52:41.990,1.676176,1.713552,1.722053,1.716677
2020-11-15 21:52:42.007,1.676301,1.709552,1.721303,1.717802
2020-11-15 21:52:42.024,1.676551,1.710177,1.717802,1.716677
2020-11-15 21:52:42.042,1.678051,1.709552,1.713927,1.716802
2020-11-15 21:52:42.060,1.677926,1.710177,1.716302,1.716052
2020-11-15 21:52:42.077,1.677551,1.714052,1.716177,1.715427
2020-11-15 21:52:42.094,1.677176,1.713677,1.721178,1.716427
2020-11-15 21:52:42.111,1.675426,1.713802,1.721428,1.716677
2020-11-15 21:52:42.128,1.676301,1.709052,1.721303,1.717427
2020-11-15 21:52:42.145,1.676176,1.709427,1.719177,1.717427
2020-11-15 21:52:42.162,1.678426,1.710177,1.712677,1.717677
2020-11-15 21:52:42.179,1.677551,1.712427,1.716177,1.716177
2020-11-15 21:52:42.196,1.677676,1.714177,1.718052,1.716677
2020-11-15 21:52:42.213,1.675801,1.712802,1.724803,1.716302
2020-11-15 21:52:42.230,1.675926,1.712177,1.721678,1.716927
2020-11-15 21:52:42.247,1.676676,1.707552,1.720803,1.717052
2020-11-15 21:52:42.264,1.676426,1.709302,1.715177,1.717427
2020-11-15 21:52:42.281,1.678426,1.710177,1.716302,1.717052
2020-11-15 21:52:42.298,1.677176,1.714677,1.716427,1.716427
2020-11-15 21:52:42.315,1.677676,1.714177,1.718677,1.716177
2020-11-15 21:52:42.332,1.676051,1.712927,1.724303,1.716427
2020-11-15 21:52:42.349,1.675801,1.711427,1.721303,1.717427
2020-11-15 21:52:42.366,1.676426,1.709177,1.721178,1.717052
2020-11-15 21:52:42.383,1.676801,1.709802,1.714427,1.717427
2020-11-15 21:52:42.400,1.678051,1.710677,1.715677,1.716427
2020-11-15 21:52:42.417,1.677176,1.715177,1.716052,1.716552
2020-11-15 21:52:42.434,1.677301,1.713552,1.718427,1.716677
2020-11-15 21:52:42.451,1.675426,1.713552,1.722803,1.716552
2020-11-15 21:52:42.468,1.675676,1.710052,1.721928,1.717302
2020-11-15 21:52:42.485,1.676551,1.709177,1.718802,1.717302
2020-11-15 21:52:42.502,1.678551,1.709677,1.713802,1.717677
2020-11-15 21:52:42.519,1.677551,1.710427,1.716177,1.716427
2020-11-15 21:52:42.536,1.677551,1.715677,1.717052,1.716177
2020-11-15 21:52:42.553,1.677176,1.712677,1.723178,1.716052
2020-11-15 21:52:42.570,1.675926,1.712677,1.721803,1.717177
2020-11-15 21:52:42.587,1.676426,1.707677,1.721428,1.716927
2020-11-15 21:52:42.604,1.676301,1.709927,1.717302,1.717427
2020-11-15 21:52:42.621,1.678051,1.710177,1.714427,1.717677
2020-11-15 21:52:42.638,1.677051,1.713802,1.716302,1.716427
2020-11-15 21:52:42.655,1.677551,1.713552,1.717177,1.716427
2020-11-15 21:52:42.672,1.675176,1.712802,1.723928,1.717427
2020-11-15 21:52:42.689,1.676801,1.712552,1.721178,1.717427
2020-11-15 21:52:42.706,1.675801,1.707302,1.721053,1.716802
2020-11-15 21:52:42.723,1.677176,1.708802,1.713802,1.716552
2020-11-15 21:52:42.740,1.678051,1.710052,1.716052,1.716427
2020-11-15 21:52:42.758,1.678051,1.713927,1.716177,1.716427
2020-11-15 21:52:42.775,1.677426,1.713302,1.720678,1.715802
2020-11-15 21:52:42.792,1.675301,1.712927,1.721678,1.717052
2020-11-15 21:52:42.809,1.676051,1.709052,1.721428,1.717677
2020-11-15 21:52:42.826,1.675801,1.709427,1.719677,1.716927
2020-11-15 21:52:42.843,1.677051,1.710177,1.712052,1.716802
2020-11-15 21:52:42.860,1.677051,1.709552,1.715677,1.716802
2020-11-15 21:52:42.878,1.677176,1.714677,1.715427,1.715927
2020-11-15 21:52:42.895,1.677676,1.713427,1.722303,1.716552
2020-11-15 21:52:42.912,1.674926,1.712927,1.721553,1.716052
2020-11-15 21:52:42.929,1.676551,1.710427,1.721428,1.717302
2020-11-15 21:52:42.946,1.676301,1.708677,1.719552,1.716677
2020-11-15 21:52:42.963,1.678301,1.709427,1.713052,1.717302
2020-11-15 21:52:42.980,1.677426,1.712427,1.716677,1.716927
2020-11-15 21:52:42.997,1.677426,1.714427,1.716552,1.716052
2020-11-15 21:52:43.014,1.677051,1.713552,1.722928,1.716177
2020-11-15 21:52:43.031,1.675551,1.711927,1.720803,1.717427
2020-11-15 21:52:43.048,1.675801,1.707177,1.721053,1.717802
2020-11-15 21:52:43.065,1.675551,1.709552,1.718552,1.717427
2020-11-15 21:52:43.082,1.678051,1.710052,1.715927,1.716677
2020-11-15 21:52:43.099,1.678176,1.712677,1.716052,1.716052
2020-11-15 21:52:43.116,1.677051,1.713802,1.718427,1.716177
2020-11-15 21:52:43.133,1.675426,1.712927,1.724303,1.716177
2020-11-15 21:52:43.150,1.676426,1.711677,1.721303,1.718552
2020-11-15 21:52:43.167,1.676801,1.709177,1.721303,1.717427
2020-11-15 21:52:43.184,1.676551,1.710052,1.714302,1.717052
2020-11-15 21:52:43.201,1.677926,1.711302,1.715427,1.716177
2020-11-15 21:52:43.218,1.677551,1.715427,1.715677,1.715927
2020-11-15 21:52:43.235,1.676676,1.712927,1.718927,1.716427
2020-11-15 21:52:43.252,1.675426,1.713177,1.721553,1.716552
2020-11-15 21:52:43.269,1.676551,1.709552,1.721803,1.718052
2020-11-15 21:52:43.286,1.676426,1.709177,1.718052,1.716427
2020-11-15 21:52:43.303,1.678551,1.709802,1.714552,1.716552
2020-11-15 21:52:43.320,1.677926,1.710802,1.716302,1.715302
2020-11-15 21:52:43.337,1.677426,1.715302,1.717302,1.716802
2020-11-15 21:52:43.354,1.676426,1.713552,1.723678,1.716927
2020-11-15 21:52:43.371,1.675801,1.711927,1.721678,1.717302
2020-11-15 21:52:43.388,1.676051,1.706927,1.721178,1.717427
2020-11-15 21:52:43.405,1.676051,1.709802,1.716927,1.717427
2020-11-15 21:52:43.422,1.677801,1.710302,1.714052,1.716427
2020-11-15 21:52:43.439,1.677051,1.713677,1.716802,1.716052
2020-11-15 21:52:43.456,1.677301,1.713427,1.720678,1.716677
2020-11-15 21:52:43.473,1.675676,1.713177,1.722303,1.716427
2020-11-15 21:52:43.490,1.675926,1.711552,1.721178,1.716802
2020-11-15 21:52:43.507,1.676176,1.706552,1.719427,1.716302
2020-11-15 21:52:43.524,1.677676,1.709427,1.713677,1.717302
2020-11-15 21:52:43.541,1.677676,1.711302,1.716302,1.716177
2020-11-15 21:52:43.558,1.677301,1.716052,1.716052,1.716927
2020-11-15 21:52:43.575,1.676676,1.713552,1.720553,1.716927
2020-11-15 21:52:43.592,1.675176,1.713177,1.721053,1.716427
2020-11-15 21:52:43.609,1.676426,1.708802,1.721053,1.717552
2020-11-15 21:52:43.626,1.675676,1.709677,1.717052,1.717302
2020-11-15 21:52:43.643,1.678301,1.710052,1.716427,1.716802
2020-11-15 21:52:43.660,1.677676,1.711677,1.715802,1.715802
2020-11-15 21:52:43.677,1.677176,1.714302,1.718302,1.715427
2020-11-15 21:52:43.695,1.676551,1.712552,1.723553,1.717052
2020-11-15 21:52:43.712,1.675551,1.712927,1.721303,1.715427
2020-11-15 21:52:43.729,1.676676,1.708177,1.722303,1.717927
2020-11-15 21:52:43.746,1.676426,1.709302,1.719802,1.716927
2020-11-15 21:52:43.763,1.677551,1.709427,1.712552,1.716177
2020-11-15 21:52:43.780,1.677426,1.712802,1.716052,1.716802
2020-11-15 21:52:43.797,1.677176,1.713677,1.716927,1.716302
2020-11-15 21:52:43.814,1.676426,1.713302,1.723053,1.716677
2020-11-15 21:52:43.831,1.675051,1.712052,1.720803,1.716927
2020-11-15 21:52:43.848,1.676426,1.707802,1.721303,1.717302
2020-11-15 21:52:43.865,1.677176,1.709677,1.714927,1.717427
2020-11-15 21:52:43.882,1.678426,1.709802,1.715927,1.716677
2020-11-15 21:52:43.899,1.677051,1.713177,1.716052,1.715677
2020-11-15 21:52:43.916,1.677301,1.712677,1.718552,1.716427
2020-11-15 21:52:43.933,1.676801,1.713677,1.724803,1.716677
2020-11-15 21:52:43.950,1.675926,1.709677,1.721178,1.717427
2020-11-15 21:52:43.967,1.676301,1.709427,1.720428,1.717302
2020-11-15 21:52:43.984,1.676676,1.709427,1.713677,1.717177
2020-11-15 21:52:44.001,1.677801,1.711052,1.715302,1.716927
2020-11-15 21:52:44.018,1.677176,1.715677,1.717177,1.716552
2020-11-15 21:52:44.035,1.676926,1.713427,1.723303,1.716427
2020-11-15 21:52:44.052,1.675926,1.713177,1.721678,1.716177
2020-11-15 21:52:44.069,1.675801,1.708802,1.721678,1.717677
2020-11-15 21:52:44.086,1.676676,1.709552,1.717552,1.716677
2020-11-15 21:52:44.103,1.678301,1.709427,1.714677,1.717677
2020-11-15 21:52:44.120,1.677801,1.714302,1.716302,1.716427
2020-11-15 21:52:44.137,1.677676,1.713052,1.717427,1.715927
2020-11-15 21:52:44.154,1.676926,1.713177,1.724428,1.716802
2020-11-15 21:52:44.171,1.676676,1.712052,1.721428,1.717052
2020-11-15 21:52:44.188,1.675926,1.707677,1.721428,1.717552
2020-11-15 21:52:44.205,1.675801,1.710177,1.715927,1.717177
2020-11-15 21:52:44.222,1.677676,1.710302,1.715802,1.716927
2020-11-15 21:52:44.239,1.678426,1.714677,1.716052,1.715677
2020-11-15 21:52:44.256,1.677551,1.713427,1.721053,1.716927
2020-11-15 21:52:44.273,1.675926,1.712677,1.722428,1.716302
2020-11-15 21:52:44.290,1.676426,1.711302,1.721553,1.716677
2020-11-15 21:52:44.307,1.676801,1.707802,1.720428,1.717427
2020-11-15 21:52:44.324,1.678051,1.709802,1.712427,1.717427
2020-11-15 21:52:44.341,1.676926,1.711677,1.716177,1.716302
2020-11-15 21:52:44.358,1.677551,1.715677,1.715677,1.716427
2020-11-15 21:52:44.375,1.676926,1.713552,1.722803,1.716802
2020-11-15 21:52:44.392,1.675301,1.713302,1.721553,1.717427
2020-11-15 21:52:44.409,1.675551,1.708427,1.722553,1.716552
2020-11-15 21:52:44.430,1.676551,1.709677,1.721053,1.718427
2020-11-15 21:52:44.447,1.675676,1.710177,1.720177,1.716927
2020-11-15 21:52:44.464,1.676926,1.709802,1.713052,1.717427
2020-11-15 21:52:44.481,1.677676,1.711552,1.715052,1.716052
2020-11-15 21:52:44.499,1.677301,1.716427,1.717552,1.716552
2020-11-15 21:52:44.516,1.677176,1.712552,1.720177,1.716177
2020-11-15 21:52:44.534,1.675926,1.713427,1.722803,1.716302
2020-11-15 21:52:44.551,1.676051,1.711677,1.721928,1.717052
2020-11-15 21:52:44.568,1.676551,1.707802,1.719552,1.716677
2020-11-15 21:52:44.585,1.677801,1.709427,1.711802,1.716927
2020-11-15 21:52:44.602,1.677676,1.710302,1.716177,1.716552
2020-11-15 21:52:44.619,1.677051,1.714927,1.715052,1.716177
2020-11-15 21:52:44.637,1.677676,1.713427,1.722053,1.716927
2020-11-15 21:52:44.654,1.675301,1.712927,1.721678,1.716802
2020-11-15 21:52:44.671,1.676676,1.710427,1.722803,1.717677
2020-11-15 21:52:44.688,1.676676,1.708302,1.719427,1.717302
2020-11-15 21:52:44.705,1.678051,1.709177,1.711302,1.716677
2020-11-15 21:52:44.722,1.677926,1.710052,1.715677,1.716052
2020-11-15 21:52:44.739,1.677801,1.714927,1.716177,1.716052
2020-11-15 21:52:44.756,1.677426,1.713052,1.723053,1.715552
2020-11-15 21:52:44.773,1.675551,1.713177,1.721928,1.716302
2020-11-15 21:52:44.790,1.676676,1.709927,1.721678,1.716802
2020-11-15 21:52:44.807,1.676551,1.708677,1.720302,1.717427
2020-11-15 21:52:44.824,1.677676,1.709177,1.710927,1.716927
2020-11-15 21:52:44.841,1.677551,1.711927,1.716177,1.716052
2020-11-15 21:52:44.858,1.677176,1.714552,1.715677,1.716427
2020-11-15 21:52:44.875,1.677426,1.713802,1.723928,1.716677
2020-11-15 21:52:44.892,1.674676,1.712177,1.721928,1.716802
2020-11-15 21:52:44.910,1.675801,1.707677,1.721928,1.717302
2020-11-15 21:52:44.927,1.676301,1.709927,1.717302,1.716802
2020-11-15 21:52:44.944,1.677426,1.709677,1.712052,1.717302
2020-11-15 21:52:44.961,1.677426,1.714177,1.715177,1.716177
2020-11-15 21:52:44.978,1.677051,1.713552,1.718677,1.717052
2020-11-15 21:52:44.995,1.676051,1.712927,1.724678,1.716427
2020-11-15 21:52:45.012,1.674676,1.712552,1.721428,1.717177
2020-11-15 21:52:45.029,1.675676,1.707302,1.720928,1.717052
2020-11-15 21:52:45.046,1.676551,1.709552,1.712552,1.717552
2020-11-15 21:52:45.063,1.677676,1.709677,1.715427,1.716552
2020-11-15 21:52:45.080,1.677551,1.714052,1.715677,1.715927
2020-11-15 21:52:45.097,1.677676,1.712927,1.720302,1.716177
2020-11-15 21:52:45.114,1.675426,1.712802,1.723303,1.716177
2020-11-15 21:52:45.131,1.676301,1.711552,1.722178,1.716802
2020-11-15 21:52:45.148,1.675926,1.706802,1.720428,1.717427
2020-11-15 21:52:45.165,1.677176,1.710052,1.711927,1.717052
2020-11-15 21:52:45.182,1.677801,1.711177,1.715552,1.716552
2020-11-15 21:52:45.199,1.677176,1.715927,1.715927,1.716677
2020-11-15 21:52:45.216,1.677051,1.713052,1.721928,1.716302
2020-11-15 21:52:45.233,1.675551,1.713052,1.721553,1.716927
2020-11-15 21:52:45.251,1.676051,1.708802,1.721428,1.717552
2020-11-15 21:52:45.268,1.675176,1.709302,1.720177,1.717802
2020-11-15 21:52:45.285,1.677551,1.710177,1.711052,1.717177
2020-11-15 21:52:45.302,1.677676,1.712302,1.715302,1.715927
2020-11-15 21:52:45.319,1.677676,1.715052,1.715427,1.716552
2020-11-15 21:52:45.336,1.676801,1.713677,1.722678,1.715052
2020-11-15 21:52:45.354,1.675426,1.713302,1.725428,1.716677
2020-11-15 21:52:45.371,1.675676,1.710427,1.721303,1.717302
2020-11-15 21:52:45.388,1.676051,1.709302,1.719677,1.717677
2020-11-15 21:52:45.405,1.678176,1.709552,1.711427,1.717052
2020-11-15 21:52:45.422,1.677551,1.710677,1.715802,1.716302
2020-11-15 21:52:45.439,1.677801,1.715052,1.716302,1.716677
2020-11-15 21:52:45.456,1.677051,1.712302,1.723803,1.715677
2020-11-15 21:52:45.473,1.675801,1.712177,1.722303,1.716927
2020-11-15 21:52:45.490,1.676301,1.707552,1.721928,1.716802
2020-11-15 21:52:45.507,1.676926,1.710177,1.718552,1.717427
2020-11-15 21:52:45.524,1.677926,1.709677,1.712302,1.717302
2020-11-15 21:52:45.541,1.677176,1.712802,1.715427,1.715802
2020-11-15 21:52:45.558,1.677426,1.713177,1.716052,1.716677
2020-11-15 21:52:45.575,1.676426,1.713302,1.725428,1.716427
2020-11-15 21:52:45.592,1.675676,1.712052,1.721803,1.717427
2020-11-15 21:52:45.609,1.676051,1.707052,1.721678,1.717302
2020-11-15 21:52:45.626,1.677051,1.709302,1.712802,1.716677
2020-11-15 21:52:45.643,1.677801,1.709177,1.715427,1.716302
2020-11-15 21:52:45.660,1.677801,1.715302,1.715677,1.716552
2020-11-15 21:52:45.677,1.677426,1.713177,1.719552,1.717052
2020-11-15 21:52:45.694,1.675176,1.713302,1.723428,1.716677
2020-11-15 21:52:45.711,1.676301,1.708802,1.722053,1.718177
2020-11-15 21:52:45.728,1.675926,1.709677,1.720428,1.717302
2020-11-15 21:52:45.745,1.676551,1.709802,1.713427,1.717177
2020-11-15 21:52:45.762,1.677801,1.711177,1.715802,1.716302
2020-11-15 21:52:45.779,1.677676,1.715302,1.717427,1.716052
2020-11-15 21:52:45.796,1.676801,1.712677,1.725178,1.715677
2020-11-15 21:52:45.813,1.675676,1.712552,1.721803,1.715677
2020-11-15 21:52:45.830,1.675801,1.707677,1.722178,1.717177
2020-11-15 21:52:45.847,1.676801,1.709802,1.716427,1.717552
2020-11-15 21:52:45.864,1.678551,1.710177,1.715802,1.716802
2020-11-15 21:52:45.881,1.677176,1.714677,1.715677,1.715927
2020-11-15 21:52:45.898,1.677551,1.713677,1.717177,1.716302
2020-11-15 21:52:45.915,1.675801,1.713302,1.725178,1.716802
2020-11-15 21:52:45.932,1.675926,1.711427,1.721803,1.717427
2020-11-15 21:52:45.949,1.676676,1.708052,1.719802,1.716552
2020-11-15 21:52:45.966,1.677051,1.709677,1.711927,1.717177
2020-11-15 21:52:45.983,1.677426,1.710677,1.716177,1.716302
2020-11-15 21:52:46.000,1.677801,1.713927,1.716052,1.715302
2020-11-15 21:52:46.017,1.677176,1.713552,1.722678,1.716677
2020-11-15 21:52:46.034,1.675426,1.712927,1.721678,1.716802
2020-11-15 21:52:46.051,1.675801,1.708427,1.721803,1.717927
2020-11-15 21:52:46.068,1.676551,1.709677,1.719927,1.717052
2020-11-15 21:52:46.085,1.677676,1.710052,1.710927,1.717302
2020-11-15 21:52:46.102,1.676926,1.712177,1.716302,1.716177
2020-11-15 21:52:46.119,1.677551,1.714802,1.717552,1.715927
2020-11-15 21:52:46.136,1.676301,1.713427,1.726428,1.716177
2020-11-15 21:52:46.153,1.676301,1.711927,1.722178,1.717177
2020-11-15 21:52:46.170,1.676176,1.709052,1.721803,1.717052
2020-11-15 21:52:46.189,1.676426,1.709177,1.719177,1.717052
2020-11-15 21:52:46.206,1.678051,1.709302,1.712802,1.716552
2020-11-15 21:52:46.223,1.677926,1.713052,1.716052,1.716302
2020-11-15 21:52:46.240,1.677801,1.713927,1.716802,1.716552
2020-11-15 21:52:46.257,1.676676,1.713552,1.724053,1.716552
2020-11-15 21:52:46.274,1.676051,1.712552,1.721678,1.717302
2020-11-15 21:52:46.290,1.675801,1.707927,1.722428,1.717552
2020-11-15 21:52:46.308,1.676676,1.709802,1.713677,1.716927
2020-11-15 21:52:46.325,1.678426,1.710302,1.715677,1.716802
2020-11-15 21:52:46.342,1.677301,1.713552,1.715802,1.716302
2020-11-15 21:52:46.359,1.677051,1.713552,1.719927,1.716927
2020-11-15 21:52:46.376,1.676051,1.713802,1.723928,1.716177
2020-11-15 21:52:46.393,1.676426,1.712177,1.721553,1.718052
2020-11-15 21:52:46.410,1.676051,1.707177,1.720302,1.716927
2020-11-15 21:52:46.427,1.676551,1.709802,1.713677,1.717177
2020-11-15 21:52:46.444,1.677926,1.709927,1.715927,1.717302
2020-11-15 21:52:46.461,1.677676,1.714552,1.716177,1.716427
2020-11-15 21:52:46.478,1.676676,1.712802,1.720928,1.717177
2020-11-15 21:52:46.495,1.676301,1.713802,1.722678,1.717052
2020-11-15 21:52:46.512,1.675801,1.708927,1.720553,1.717802
2020-11-15 21:52:46.529,1.676051,1.709677,1.720052,1.717677
2020-11-15 21:52:46.546,1.677051,1.710177,1.712052,1.717927
2020-11-15 21:52:46.563,1.677551,1.711302,1.715802,1.716302
2020-11-15 21:52:46.580,1.678051,1.715302,1.717552,1.716427
2020-11-15 21:52:46.597,1.676676,1.713177,1.725553,1.716677
2020-11-15 21:52:46.614,1.676426,1.712802,1.722178,1.716177
2020-11-15 21:52:46.631,1.676551,1.708052,1.722428,1.717302
2020-11-15 21:52:46.648,1.676301,1.709052,1.716052,1.717802
2020-11-15 21:52:46.665,1.678176,1.710677,1.715552,1.717552
2020-11-15 21:52:46.682,1.677551,1.714552,1.716052,1.716802
2020-11-15 21:52:46.699,1.677176,1.713552,1.717552,1.716677
2020-11-15 21:52:46.716,1.675926,1.713677,1.725803,1.716677
2020-11-15 21:52:46.733,1.676176,1.711927,1.720678,1.717302
2020-11-15 21:52:46.750,1.676176,1.708302,1.720177,1.717552
2020-11-15 21:52:46.767,1.677926,1.709552,1.712052,1.717677
2020-11-15 21:52:46.784,1.678051,1.710677,1.716177,1.716677
2020-11-15 21:52:46.801,1.677926,1.714302,1.716552,1.716302
2020-11-15 21:52:46.818,1.677301,1.712927,1.723303,1.716552
2020-11-15 21:52:46.835,1.675676,1.713302,1.722178,1.716802
2020-11-15 21:52:46.852,1.676051,1.708427,1.722053,1.718052
2020-11-15 21:52:46.869,1.676051,1.710177,1.719677,1.717052
2020-11-15 21:52:46.886,1.677801,1.710427,1.711552,1.716927
2020-11-15 21:52:46.903,1.677676,1.712552,1.715427,1.715927
2020-11-15 21:52:46.920,1.677426,1.714802,1.715677,1.717052
2020-11-15 21:52:46.938,1.677176,1.714177,1.723428,1.716927
2020-11-15 21:52:46.955,1.675801,1.712427,1.721928,1.717177
2020-11-15 21:52:46.972,1.676301,1.707927,1.721428,1.717302
2020-11-15 21:52:46.989,1.676426,1.709927,1.718552,1.716552
2020-11-15 21:52:47.007,1.676926,1.709927,1.713177,1.717177
2020-11-15 21:52:47.024,1.678801,1.711552,1.715427,1.715927
2020-11-15 21:52:47.041,1.677176,1.715677,1.715552,1.716302
2020-11-15 21:52:47.058,1.677176,1.713427,1.720428,1.716927
2020-11-15 21:52:47.075,1.675801,1.713177,1.722178,1.716302
2020-11-15 21:52:47.092,1.676051,1.708927,1.721928,1.717677
2020-11-15 21:52:47.109,1.677051,1.709677,1.717302,1.717052
2020-11-15 21:52:47.126,1.678801,1.709677,1.714302,1.717427
2020-11-15 21:52:47.143,1.678051,1.711802,1.715927,1.715927
2020-11-15 21:52:47.160,1.677926,1.714802,1.717677,1.715927
2020-11-15 21:52:47.177,1.676551,1.712802,1.726053,1.717052
2020-11-15 21:52:47.194,1.676426,1.712427,1.722053,1.717552
2020-11-15 21:52:47.211,1.675926,1.706927,1.721928,1.717177
2020-11-15 21:52:47.228,1.676426,1.710302,1.716302,1.717052
2020-11-15 21:52:47.245,1.677801,1.710177,1.715802,1.716802
2020-11-15 21:52:47.262,1.676926,1.714552,1.715552,1.715427
2020-11-15 21:52:47.279,1.677551,1.713802,1.721803,1.716552
2020-11-15 21:52:47.296,1.675676,1.713427,1.722428,1.716927
2020-11-15 21:52:47.313,1.676051,1.711302,1.721678,1.717802
2020-11-15 21:52:47.330,1.676426,1.708552,1.720052,1.717302
2020-11-15 21:52:47.348,1.677926,1.709677,1.710927,1.717052
2020-11-15 21:52:47.364,1.677426,1.710552,1.716177,1.716302
2020-11-15 21:52:47.381,1.677801,1.715302,1.715677,1.715677
2020-11-15 21:52:47.399,1.678551,1.712927,1.723178,1.716552
2020-11-15 21:52:47.415,1.675051,1.713052,1.722428,1.717177
2020-11-15 21:52:47.432,1.675801,1.708052,1.721803,1.717677
2020-11-15 21:52:47.450,1.676426,1.709427,1.719802,1.717302
2020-11-15 21:52:47.467,1.677801,1.709802,1.711052,1.718052
2020-11-15 21:52:47.483,1.677051,1.712552,1.715052,1.715927
2020-11-15 21:52:47.500,1.677051,1.714302,1.718677,1.716802
2020-11-15 21:52:47.517,1.676301,1.713177,1.726928,1.716177
2020-11-15 21:52:47.534,1.676051,1.711927,1.721678,1.717302
2020-11-15 21:52:47.551,1.676801,1.708052,1.722178,1.717302
2020-11-15 21:52:47.569,1.677176,1.709677,1.713677,1.717302
2020-11-15 21:52:47.585,1.678551,1.709427,1.715927,1.716677
2020-11-15 21:52:47.603,1.678301,1.715552,1.715427,1.716552
2020-11-15 21:52:47.619,1.677551,1.713302,1.718802,1.716552
2020-11-15 21:52:47.636,1.675676,1.713552,1.724678,1.716802
2020-11-15 21:52:47.654,1.676176,1.710302,1.721428,1.718427
2020-11-15 21:52:47.671,1.675801,1.709427,1.720803,1.717552
2020-11-15 21:52:47.688,1.676676,1.709927,1.711302,1.717427
2020-11-15 21:52:47.705,1.677801,1.710802,1.715677,1.716302
2020-11-15 21:52:47.722,1.677426,1.716052,1.717177,1.716552
2020-11-15 21:52:47.739,1.676801,1.713302,1.724428,1.716552
2020-11-15 21:52:47.756,1.675176,1.712552,1.722178,1.716052
2020-11-15 21:52:47.773,1.676926,1.708802,1.722553,1.717302
2020-11-15 21:52:47.790,1.676426,1.710177,1.717427,1.716802
2020-11-15 21:52:47.807,1.677676,1.709552,1.713302,1.717427
2020-11-15 21:52:47.824,1.677426,1.710302,1.715177,1.716177
2020-11-15 21:52:47.842,1.677426,1.716302,1.715427,1.716927
2020-11-15 21:52:47.859,1.677051,1.712552,1.721053,1.716677
2020-11-15 21:52:47.876,1.675176,1.712802,1.722178,1.716552
2020-11-15 21:52:47.893,1.676051,1.709177,1.722553,1.717302
2020-11-15 21:52:47.910,1.676051,1.709677,1.716302,1.717302
2020-11-15 21:52:47.927,1.678801,1.710052,1.715302,1.716677
2020-11-15 21:52:47.944,1.677426,1.710802,1.715802,1.715677
2020-11-15 21:52:47.961,1.677551,1.714927,1.718427,1.716552
2020-11-15 21:52:47.978,1.676551,1.713677,1.727303,1.717177
2020-11-15 21:52:47.995,1.676301,1.712052,1.721678,1.717427
2020-11-15 21:52:48.012,1.676426,1.707677,1.722178,1.717302
2020-11-15 21:52:48.029,1.676426,1.709677,1.713927,1.717427
2020-11-15 21:52:48.046,1.678676,1.710677,1.715052,1.716802
2020-11-15 21:52:48.063,1.677426,1.714927,1.715052,1.716302
2020-11-15 21:52:48.080,1.677301,1.713552,1.723428,1.716302
2020-11-15 21:52:48.097,1.675301,1.713302,1.721678,1.716427
2020-11-15 21:52:48.114,1.676676,1.710427,1.722678,1.717427
2020-11-15 21:52:48.131,1.676426,1.708052,1.720553,1.717177
2020-11-15 21:52:48.148,1.678051,1.709177,1.710927,1.717052
2020-11-15 21:52:48.165,1.677926,1.710052,1.715177,1.716052
2020-11-15 21:52:48.182,1.677676,1.715177,1.716177,1.716802
2020-11-15 21:52:48.199,1.676801,1.713802,1.724428,1.717052
2020-11-15 21:52:48.216,1.675676,1.712677,1.722303,1.717677
2020-11-15 21:52:48.233,1.676301,1.707927,1.721678,1.717052
2020-11-15 21:52:48.250,1.676051,1.709802,1.719052,1.717052
2020-11-15 21:52:48.267,1.677801,1.710052,1.715302,1.717177
2020-11-15 21:52:48.284,1.678176,1.713052,1.715052,1.715552
2020-11-15 21:52:48.301,1.677426,1.713052,1.717677,1.716302
2020-11-15 21:52:48.318,1.676051,1.713302,1.727053,1.716927
2020-11-15 21:52:48.335,1.676301,1.712677,1.722178,1.717177
2020-11-15 21:52:48.352,1.676426,1.707052,1.721553,1.717802
2020-11-15 21:52:48.369,1.677176,1.709177,1.713552,1.716802
2020-11-15 21:52:48.386,1.678301,1.710177,1.714302,1.717052
2020-11-15 21:52:48.403,1.677426,1.713427,1.715302,1.716927
2020-11-15 21:52:48.420,1.677301,1.713427,1.719552,1.716927
2020-11-15 21:52:48.437,1.676301,1.713052,1.725428,1.716552
2020-11-15 21:52:48.454,1.676176,1.709802,1.721803,1.717552
2020-11-15 21:52:48.471,1.676426,1.710052,1.720177,1.716927
2020-11-15 21:52:48.488,1.676801,1.709927,1.711677,1.717552
2020-11-15 21:52:48.505,1.677676,1.711052,1.714302,1.715927
2020-11-15 21:52:48.522,1.677051,1.716427,1.717177,1.717302
2020-11-15 21:52:48.539,1.677676,1.713177,1.726428,1.716302
2020-11-15 21:52:48.556,1.676051,1.712427,1.723053,1.716802
2020-11-15 21:52:48.573,1.677051,1.708677,1.722928,1.717427
2020-11-15 21:52:48.590,1.677051,1.709677,1.716677,1.716802
2020-11-15 21:52:48.607,1.678676,1.709052,1.712677,1.716427
2020-11-15 21:52:48.624,1.678051,1.714552,1.715427,1.716552
2020-11-15 21:52:48.641,1.677926,1.713427,1.717302,1.716177
2020-11-15 21:52:48.659,1.677301,1.713427,1.723553,1.716802
2020-11-15 21:52:48.677,1.675301,1.712677,1.722678,1.716677
2020-11-15 21:52:48.694,1.675926,1.708677,1.722053,1.717552
2020-11-15 21:52:48.710,1.675676,1.709677,1.719927,1.717552
