Datetime,chan0,chan1,chan2,chan3
2020-11-15 22:02:15.215,1.599174,1.732428,1.728803,1.715052
2020-11-15 22:02:15.232,1.600299,1.727553,1.734803,1.714552
2020-11-15 22:02:15.249,1.601174,1.726428,1.736303,1.714677
2020-11-15 22:02:15.266,1.601174,1.718677,1.734928,1.716302
2020-11-15 22:02:15.283,1.599299,1.720428,1.732803,1.715677
2020-11-15 22:02:15.300,1.600424,1.720803,1.722928,1.715177
2020-11-15 22:02:15.317,1.601424,1.724428,1.729428,1.714302
2020-11-15 22:02:15.334,1.601174,1.731803,1.731678,1.714552
2020-11-15 22:02:15.351,1.600549,1.727053,1.740678,1.714677
2020-11-15 22:02:15.368,1.601424,1.725803,1.735678,1.715302
2020-11-15 22:02:15.385,1.601049,1.717052,1.736053,1.716302
2020-11-15 22:02:15.402,1.600674,1.720302,1.728303,1.715177
2020-11-15 22:02:15.419,1.601799,1.720428,1.728553,1.714302
2020-11-15 22:02:15.436,1.600674,1.725303,1.729178,1.714677
2020-11-15 22:02:15.453,1.601799,1.727803,1.731428,1.714802
2020-11-15 22:02:15.470,1.602049,1.726553,1.740803,1.714802
2020-11-15 22:02:15.487,1.601799,1.722053,1.735553,1.716427
2020-11-15 22:02:15.504,1.600799,1.717552,1.734428,1.715427
2020-11-15 22:02:15.521,1.600799,1.721178,1.725428,1.715302
2020-11-15 22:02:15.539,1.601424,1.722928,1.728178,1.714302
2020-11-15 22:02:15.556,1.601049,1.731928,1.728928,1.714177
2020-11-15 22:02:15.573,1.600424,1.727553,1.732178,1.714927
2020-11-15 22:02:15.590,1.601049,1.727178,1.739553,1.714802
2020-11-15 22:02:15.607,1.600924,1.721053,1.735553,1.715927
2020-11-15 22:02:15.624,1.601049,1.719927,1.732053,1.715177
2020-11-15 22:02:15.641,1.602049,1.721178,1.724428,1.715302
2020-11-15 22:02:15.658,1.600799,1.723553,1.729178,1.714552
2020-11-15 22:02:15.675,1.601049,1.732553,1.731053,1.714677
2020-11-15 22:02:15.692,1.601674,1.727178,1.739053,1.714177
2020-11-15 22:02:15.709,1.601924,1.726303,1.736178,1.714552
2020-11-15 22:02:15.726,1.601049,1.717927,1.735303,1.715677
2020-11-15 22:02:15.743,1.600924,1.719802,1.730178,1.714927
2020-11-15 22:02:15.760,1.602549,1.720678,1.726178,1.714802
2020-11-15 22:02:15.777,1.601174,1.723678,1.729053,1.714177
2020-11-15 22:02:15.794,1.601674,1.727803,1.730928,1.715052
2020-11-15 22:02:15.811,1.601799,1.727053,1.740053,1.715052
2020-11-15 22:02:15.828,1.602424,1.723928,1.735803,1.715677
2020-11-15 22:02:15.845,1.601174,1.715427,1.735553,1.715802
2020-11-15 22:02:15.862,1.600924,1.721053,1.727803,1.715177
2020-11-15 22:02:15.879,1.601924,1.721428,1.728178,1.714677
2020-11-15 22:02:15.896,1.601174,1.730053,1.728678,1.714427
2020-11-15 22:02:15.913,1.599924,1.727178,1.731303,1.714427
2020-11-15 22:02:15.930,1.601174,1.727428,1.740928,1.714927
2020-11-15 22:02:15.947,1.600924,1.722678,1.735178,1.715802
2020-11-15 22:02:15.964,1.600174,1.717927,1.733053,1.714802
2020-11-15 22:02:15.981,1.600174,1.721178,1.723553,1.715677
2020-11-15 22:02:15.998,1.601174,1.722303,1.729053,1.714427
2020-11-15 22:02:16.015,1.600424,1.730803,1.729553,1.714302
2020-11-15 22:02:16.032,1.601424,1.727178,1.732178,1.714552
2020-11-15 22:02:16.051,1.601174,1.726553,1.740428,1.714927
2020-11-15 22:02:16.068,1.601049,1.724678,1.735178,1.715552
2020-11-15 22:02:16.085,1.601174,1.715552,1.734678,1.715177
2020-11-15 22:02:16.102,1.600424,1.720428,1.724928,1.714927
2020-11-15 22:02:16.119,1.601174,1.720928,1.728178,1.714552
2020-11-15 22:02:16.136,1.600799,1.728553,1.729053,1.713552
2020-11-15 22:02:16.153,1.600424,1.726803,1.734303,1.713677
2020-11-15 22:02:16.170,1.602174,1.726178,1.739053,1.714552
2020-11-15 22:02:16.187,1.600924,1.718302,1.735803,1.716552
2020-11-15 22:02:16.204,1.600924,1.720177,1.733053,1.716302
2020-11-15 22:02:16.221,1.601174,1.720928,1.724303,1.715177
2020-11-15 22:02:16.238,1.600549,1.724178,1.728678,1.714427
2020-11-15 22:02:16.255,1.600674,1.732678,1.728803,1.714677
2020-11-15 22:02:16.272,1.600799,1.726928,1.735053,1.714927
2020-11-15 22:02:16.289,1.600924,1.726303,1.735553,1.715052
2020-11-15 22:02:16.306,1.601299,1.717802,1.734678,1.716552
2020-11-15 22:02:16.323,1.599674,1.720052,1.731803,1.715427
2020-11-15 22:02:16.340,1.602549,1.720678,1.727928,1.715302
2020-11-15 22:02:16.357,1.600174,1.724803,1.728928,1.713677
2020-11-15 22:02:16.374,1.600424,1.730803,1.732053,1.714802
2020-11-15 22:02:16.391,1.602049,1.727053,1.741178,1.714552
2020-11-15 22:02:16.408,1.601424,1.724803,1.735678,1.714927
2020-11-15 22:02:16.425,1.601049,1.716677,1.734553,1.715302
2020-11-15 22:02:16.442,1.600924,1.720302,1.726553,1.715302
2020-11-15 22:02:16.459,1.602174,1.719802,1.728428,1.714677
2020-11-15 22:02:16.476,1.600799,1.725928,1.728053,1.713552
2020-11-15 22:02:16.493,1.600674,1.727803,1.732303,1.714552
2020-11-15 22:02:16.510,1.602049,1.726803,1.740678,1.715177
2020-11-15 22:02:16.528,1.601299,1.721178,1.735553,1.716427
2020-11-15 22:02:16.545,1.600674,1.719177,1.734053,1.715552
2020-11-15 22:02:16.562,1.600674,1.720428,1.725428,1.715177
2020-11-15 22:02:16.579,1.600924,1.723178,1.728178,1.715052
2020-11-15 22:02:16.596,1.600799,1.732178,1.728678,1.714427
2020-11-15 22:02:16.613,1.601549,1.727678,1.733428,1.714427
2020-11-15 22:02:16.630,1.602174,1.726678,1.738303,1.715052
2020-11-15 22:02:16.647,1.601299,1.718802,1.735053,1.715802
2020-11-15 22:02:16.664,1.600049,1.720302,1.730803,1.715302
2020-11-15 22:02:16.681,1.601549,1.720428,1.725803,1.715177
2020-11-15 22:02:16.698,1.601674,1.723678,1.729303,1.714177
2020-11-15 22:02:16.715,1.600049,1.731928,1.730678,1.714427
2020-11-15 22:02:16.732,1.601049,1.727053,1.740553,1.714052
2020-11-15 22:02:16.749,1.601549,1.726178,1.736303,1.714677
2020-11-15 22:02:16.766,1.601674,1.717052,1.735928,1.715552
2020-11-15 22:02:16.783,1.600549,1.719677,1.728928,1.715177
2020-11-15 22:02:16.800,1.602174,1.720177,1.727428,1.715052
2020-11-15 22:02:16.817,1.601049,1.724553,1.728928,1.713802
2020-11-15 22:02:16.834,1.600549,1.727678,1.731303,1.714302
2020-11-15 22:02:16.851,1.601799,1.727428,1.741178,1.714302
2020-11-15 22:02:16.869,1.601424,1.725178,1.736428,1.714677
2020-11-15 22:02:16.886,1.601674,1.717427,1.735428,1.716177
2020-11-15 22:02:16.903,1.600799,1.720177,1.731803,1.715552
2020-11-15 22:02:16.920,1.601174,1.720302,1.723678,1.715302
2020-11-15 22:02:16.938,1.600799,1.726678,1.728428,1.713927
2020-11-15 22:02:16.955,1.600799,1.728928,1.729428,1.714302
2020-11-15 22:02:16.972,1.602924,1.727178,1.738178,1.715052
2020-11-15 22:02:16.989,1.601799,1.725053,1.735428,1.715552
2020-11-15 22:02:17.006,1.601424,1.715677,1.735053,1.716052
2020-11-15 22:02:17.023,1.600674,1.720803,1.730553,1.715177
2020-11-15 22:02:17.040,1.601424,1.721053,1.725678,1.714802
2020-11-15 22:02:17.057,1.601174,1.728928,1.728803,1.714052
2020-11-15 22:02:17.074,1.601924,1.727803,1.730053,1.715052
2020-11-15 22:02:17.091,1.600924,1.726678,1.738678,1.715052
2020-11-15 22:02:17.108,1.601924,1.724428,1.736053,1.715677
2020-11-15 22:02:17.125,1.601174,1.715427,1.735553,1.715927
2020-11-15 22:02:17.142,1.601174,1.721178,1.728303,1.715177
2020-11-15 22:02:17.159,1.600799,1.721678,1.727178,1.715052
2020-11-15 22:02:17.176,1.600674,1.730678,1.728803,1.714552
2020-11-15 22:02:17.193,1.599549,1.727553,1.731053,1.714552
2020-11-15 22:02:17.211,1.601674,1.726928,1.736803,1.714177
2020-11-15 22:02:17.228,1.601674,1.722553,1.734928,1.716052
2020-11-15 22:02:17.245,1.600924,1.716677,1.732553,1.715177
2020-11-15 22:02:17.262,1.600549,1.720052,1.722678,1.714927
2020-11-15 22:02:17.279,1.601674,1.721928,1.728553,1.714052
2020-11-15 22:02:17.296,1.599799,1.730803,1.729303,1.713427
2020-11-15 22:02:17.313,1.601549,1.727303,1.736928,1.714302
2020-11-15 22:02:17.330,1.601549,1.727178,1.735303,1.714677
2020-11-15 22:02:17.347,1.601424,1.720928,1.735928,1.715302
2020-11-15 22:02:17.364,1.601674,1.718177,1.732428,1.715177
2020-11-15 22:02:17.381,1.601549,1.720678,1.723178,1.715177
2020-11-15 22:02:17.398,1.601049,1.726303,1.729053,1.713677
2020-11-15 22:02:17.415,1.600924,1.729303,1.728803,1.715052
2020-11-15 22:02:17.432,1.600549,1.726928,1.738678,1.714802
2020-11-15 22:02:17.449,1.601049,1.724053,1.735428,1.715427
2020-11-15 22:02:17.466,1.601174,1.716177,1.735053,1.715677
2020-11-15 22:02:17.483,1.600674,1.720177,1.730178,1.715552
2020-11-15 22:02:17.500,1.600424,1.721303,1.724803,1.715177
2020-11-15 22:02:17.517,1.600799,1.728053,1.728678,1.714552
2020-11-15 22:02:17.534,1.601049,1.727303,1.730428,1.714427
2020-11-15 22:02:17.551,1.601049,1.726678,1.739178,1.714302
2020-11-15 22:02:17.568,1.600299,1.724428,1.735553,1.715802
2020-11-15 22:02:17.585,1.600674,1.715927,1.733303,1.715677
2020-11-15 22:02:17.602,1.600799,1.721053,1.724803,1.715177
2020-11-15 22:02:17.619,1.600549,1.721178,1.728053,1.715052
2020-11-15 22:02:17.636,1.600549,1.729303,1.729428,1.713552
2020-11-15 22:02:17.653,1.601424,1.727553,1.735303,1.714677
2020-11-15 22:02:17.670,1.601174,1.726678,1.736928,1.714302
2020-11-15 22:02:17.688,1.602174,1.724053,1.735678,1.715177
2020-11-15 22:02:17.706,1.601299,1.717427,1.735178,1.716052
2020-11-15 22:02:17.723,1.601299,1.720553,1.726803,1.714677
2020-11-15 22:02:17.740,1.601549,1.720302,1.728553,1.714552
2020-11-15 22:02:17.757,1.600799,1.725928,1.728928,1.713677
2020-11-15 22:02:17.774,1.600549,1.728428,1.731428,1.714052
2020-11-15 22:02:17.791,1.600924,1.726553,1.741178,1.713552
2020-11-15 22:02:17.808,1.601674,1.724553,1.735678,1.716052
2020-11-15 22:02:17.825,1.600299,1.717677,1.734803,1.715552
2020-11-15 22:02:17.842,1.600924,1.720803,1.725053,1.715552
2020-11-15 22:02:17.859,1.601424,1.722428,1.728428,1.714677
2020-11-15 22:02:17.876,1.600049,1.731178,1.728553,1.714552
2020-11-15 22:02:17.893,1.601174,1.727553,1.733053,1.714302
2020-11-15 22:02:17.910,1.600799,1.726928,1.738678,1.714677
2020-11-15 22:02:17.927,1.600924,1.719552,1.734928,1.716427
2020-11-15 22:02:17.944,1.600674,1.720052,1.733553,1.715552
2020-11-15 22:02:17.961,1.599674,1.720803,1.724553,1.715552
2020-11-15 22:02:17.978,1.601549,1.723178,1.729053,1.714927
2020-11-15 22:02:17.995,1.600549,1.732553,1.730553,1.714802
2020-11-15 22:02:18.013,1.599924,1.726678,1.739428,1.714802
2020-11-15 22:02:18.030,1.601549,1.726053,1.735928,1.714677
2020-11-15 22:02:18.047,1.601549,1.718677,1.735678,1.716052
2020-11-15 22:02:18.064,1.600924,1.720553,1.729803,1.715177
2020-11-15 22:02:18.081,1.601049,1.720678,1.726553,1.714927
2020-11-15 22:02:18.098,1.601549,1.724303,1.729053,1.713927
2020-11-15 22:02:18.115,1.600799,1.731553,1.731428,1.714427
2020-11-15 22:02:18.132,1.602049,1.727053,1.740553,1.714177
2020-11-15 22:02:18.149,1.601549,1.725178,1.735303,1.714302
2020-11-15 22:02:18.166,1.600549,1.717177,1.735303,1.715427
2020-11-15 22:02:18.183,1.600549,1.719552,1.727553,1.714052
2020-11-15 22:02:18.200,1.602049,1.719927,1.728303,1.715052
2020-11-15 22:02:18.217,1.601924,1.726053,1.729428,1.714552
2020-11-15 22:02:18.234,1.600924,1.727803,1.731928,1.714302
2020-11-15 22:02:18.251,1.602799,1.727178,1.740303,1.715552
2020-11-15 22:02:18.268,1.601174,1.721928,1.735803,1.716427
2020-11-15 22:02:18.285,1.601424,1.718302,1.735053,1.715802
2020-11-15 22:02:18.302,1.600299,1.720428,1.725053,1.715427
2020-11-15 22:02:18.319,1.601674,1.722553,1.728053,1.715052
2020-11-15 22:02:18.336,1.600674,1.731928,1.728678,1.714677
2020-11-15 22:02:18.353,1.600799,1.727053,1.732178,1.714802
2020-11-15 22:02:18.370,1.601424,1.727053,1.739428,1.715052
2020-11-15 22:02:18.387,1.600799,1.720428,1.734928,1.716677
2020-11-15 22:02:18.404,1.600674,1.719927,1.731928,1.715427
2020-11-15 22:02:18.422,1.601424,1.720928,1.724803,1.715302
2020-11-15 22:02:18.439,1.600924,1.723053,1.729553,1.714802
2020-11-15 22:02:18.456,1.601299,1.732303,1.730178,1.714302
2020-11-15 22:02:18.473,1.600799,1.727303,1.739178,1.713427
2020-11-15 22:02:18.490,1.601424,1.726303,1.735928,1.712427
2020-11-15 22:02:18.507,1.601424,1.718302,1.735428,1.715177
2020-11-15 22:02:18.525,1.601174,1.715802,1.733553,1.715302
2020-11-15 22:02:18.542,1.601174,1.720553,1.723178,1.715052
2020-11-15 22:02:18.559,1.600799,1.721928,1.728803,1.715177
2020-11-15 22:02:18.576,1.600924,1.730428,1.729678,1.713927
2020-11-15 22:02:18.593,1.600924,1.727553,1.736803,1.714302
2020-11-15 22:02:18.610,1.600924,1.726803,1.736178,1.715177
2020-11-15 22:02:18.628,1.601549,1.721678,1.735553,1.715677
2020-11-15 22:02:18.645,1.601174,1.717177,1.732428,1.715427
2020-11-15 22:02:18.662,1.601674,1.719677,1.722678,1.715052
2020-11-15 22:02:18.679,1.601299,1.721678,1.728803,1.713677
2020-11-15 22:02:18.696,1.601049,1.731303,1.730178,1.714052
2020-11-15 22:02:18.713,1.600424,1.727553,1.739053,1.714302
2020-11-15 22:02:18.730,1.601674,1.725553,1.736428,1.715677
2020-11-15 22:02:18.747,1.600799,1.715927,1.734678,1.715177
2020-11-15 22:02:18.764,1.600299,1.720428,1.730678,1.715052
2020-11-15 22:02:18.781,1.601424,1.720678,1.723678,1.715302
2020-11-15 22:02:18.798,1.600174,1.726928,1.728303,1.714302
2020-11-15 22:02:18.815,1.601424,1.727303,1.730053,1.714052
2020-11-15 22:02:18.832,1.601174,1.726553,1.738553,1.714427
2020-11-15 22:02:18.849,1.601299,1.724803,1.734553,1.715427
2020-11-15 22:02:18.866,1.601174,1.715052,1.734178,1.715177
2020-11-15 22:02:18.883,1.601424,1.720177,1.724928,1.715177
2020-11-15 22:02:18.900,1.601424,1.721553,1.728178,1.714052
2020-11-15 22:02:18.917,1.601674,1.729178,1.728553,1.714177
2020-11-15 22:02:18.934,1.601674,1.727553,1.734428,1.715052
2020-11-15 22:02:18.951,1.602299,1.726553,1.738178,1.714052
2020-11-15 22:02:18.968,1.600674,1.723303,1.734928,1.715052
2020-11-15 22:02:18.985,1.600549,1.715427,1.733178,1.714802
2020-11-15 22:02:19.002,1.601799,1.719802,1.723803,1.714427
2020-11-15 22:02:19.019,1.602049,1.720553,1.728678,1.713677
2020-11-15 22:02:19.036,1.601049,1.731553,1.728678,1.714177
2020-11-15 22:02:19.053,1.601799,1.727303,1.736553,1.714552
2020-11-15 22:02:19.070,1.601174,1.726178,1.736303,1.715177
2020-11-15 22:02:19.087,1.601174,1.718177,1.735178,1.716802
2020-11-15 22:02:19.104,1.601049,1.720428,1.733053,1.715552
2020-11-15 22:02:19.121,1.600424,1.720803,1.722428,1.715177
2020-11-15 22:02:19.138,1.600424,1.725428,1.728053,1.714052
2020-11-15 22:02:19.155,1.601674,1.729928,1.728178,1.714427
2020-11-15 22:02:19.172,1.600924,1.726678,1.737303,1.714427
2020-11-15 22:02:19.189,1.600924,1.725428,1.735428,1.715427
2020-11-15 22:02:19.206,1.601299,1.716177,1.734678,1.715427
2020-11-15 22:02:19.223,1.601049,1.720052,1.726178,1.715052
2020-11-15 22:02:19.241,1.601049,1.720678,1.728678,1.715052
2020-11-15 22:02:19.258,1.600299,1.726678,1.728428,1.713677
2020-11-15 22:02:19.275,1.600924,1.726928,1.731553,1.715052
2020-11-15 22:02:19.292,1.601424,1.727053,1.739928,1.713677
2020-11-15 22:02:19.309,1.601299,1.723803,1.735553,1.715302
2020-11-15 22:02:19.326,1.600924,1.714677,1.734303,1.714802
2020-11-15 22:02:19.343,1.600424,1.719052,1.729928,1.715177
2020-11-15 22:02:19.361,1.599424,1.720428,1.722928,1.715177
2020-11-15 22:02:19.379,1.601049,1.723303,1.728803,1.713927
2020-11-15 22:02:19.396,1.600174,1.732053,1.730928,1.714552
2020-11-15 22:02:19.413,1.602049,1.726678,1.740678,1.714302
2020-11-15 22:02:19.430,1.601674,1.725803,1.735428,1.714552
2020-11-15 22:02:19.447,1.601299,1.717802,1.735178,1.715177
2020-11-15 22:02:19.464,1.600424,1.719302,1.728553,1.714677
2020-11-15 22:02:19.481,1.600924,1.719802,1.728053,1.714052
2020-11-15 22:02:19.498,1.601049,1.724553,1.728053,1.713927
2020-11-15 22:02:19.515,1.600674,1.727053,1.731428,1.714052
2020-11-15 22:02:19.532,1.601424,1.726428,1.741178,1.714427
2020-11-15 22:02:19.549,1.601049,1.722178,1.735553,1.715927
2020-11-15 22:02:19.566,1.600174,1.717302,1.734178,1.714927
2020-11-15 22:02:19.583,1.600424,1.719927,1.725678,1.714927
2020-11-15 22:02:19.600,1.601299,1.722303,1.728178,1.714052
2020-11-15 22:02:19.617,1.600674,1.731303,1.728178,1.713927
2020-11-15 22:02:19.634,1.600549,1.727303,1.731553,1.714427
2020-11-15 22:02:19.651,1.600674,1.726803,1.739428,1.714927
2020-11-15 22:02:19.668,1.601299,1.720803,1.735053,1.715802
2020-11-15 22:02:19.685,1.600924,1.719552,1.732178,1.715052
2020-11-15 22:02:19.702,1.601424,1.720428,1.723178,1.714677
2020-11-15 22:02:19.719,1.600549,1.722428,1.729178,1.714177
2020-11-15 22:02:19.736,1.601174,1.732178,1.729928,1.714552
2020-11-15 22:02:19.753,1.601174,1.726678,1.738303,1.714052
2020-11-15 22:02:19.770,1.601174,1.726178,1.736178,1.714177
2020-11-15 22:02:19.787,1.601674,1.718177,1.735678,1.716302
2020-11-15 22:02:19.804,1.599924,1.719552,1.729428,1.715052
2020-11-15 22:02:19.821,1.601549,1.719802,1.725303,1.714302
2020-11-15 22:02:19.838,1.601049,1.722428,1.728553,1.713927
2020-11-15 22:02:19.855,1.600924,1.727303,1.731303,1.714302
2020-11-15 22:02:19.872,1.601799,1.727053,1.740678,1.714927
2020-11-15 22:02:19.889,1.601924,1.723678,1.735553,1.716302
2020-11-15 22:02:19.906,1.600674,1.714927,1.734803,1.715177
2020-11-15 22:02:19.923,1.600924,1.720803,1.728053,1.715177
2020-11-15 22:02:19.940,1.601424,1.721428,1.728428,1.715177
2020-11-15 22:02:19.957,1.600299,1.729678,1.728803,1.714552
2020-11-15 22:02:19.974,1.600674,1.727553,1.730678,1.714427
2020-11-15 22:02:19.991,1.601424,1.727303,1.740428,1.714802
2020-11-15 22:02:20.009,1.601549,1.722428,1.734303,1.716052
2020-11-15 22:02:20.026,1.601049,1.717177,1.734053,1.715677
2020-11-15 22:02:20.043,1.600424,1.720553,1.723428,1.715927
2020-11-15 22:02:20.060,1.601049,1.722803,1.729178,1.714802
2020-11-15 22:02:20.077,1.602174,1.730428,1.729553,1.713927
2020-11-15 22:02:20.094,1.601299,1.727553,1.737553,1.714552
2020-11-15 22:02:20.111,1.602174,1.726803,1.735678,1.714552
2020-11-15 22:02:20.128,1.601424,1.720928,1.735553,1.716052
2020-11-15 22:02:20.145,1.600924,1.719052,1.732053,1.715052
2020-11-15 22:02:20.162,1.601299,1.720428,1.723928,1.713927
2020-11-15 22:02:20.180,1.601799,1.720553,1.728178,1.714677
2020-11-15 22:02:20.197,1.600049,1.728678,1.728928,1.713552
2020-11-15 22:02:20.214,1.599799,1.726803,1.733928,1.713802
2020-11-15 22:02:20.231,1.602424,1.726553,1.738678,1.714552
2020-11-15 22:02:20.248,1.603299,1.718552,1.734803,1.716052
2020-11-15 22:02:20.265,1.600424,1.720177,1.733178,1.714802
2020-11-15 22:02:20.282,1.600174,1.720553,1.723303,1.715302
2020-11-15 22:02:20.299,1.601674,1.723178,1.727803,1.714802
2020-11-15 22:02:20.316,1.600799,1.732053,1.728678,1.713927
2020-11-15 22:02:20.333,1.601299,1.727303,1.734803,1.715052
2020-11-15 22:02:20.350,1.601674,1.725553,1.735428,1.714552
2020-11-15 22:02:20.367,1.601299,1.717677,1.734928,1.716427
2020-11-15 22:02:20.384,1.600549,1.719927,1.732178,1.715177
2020-11-15 22:02:20.401,1.601549,1.720302,1.727678,1.715302
2020-11-15 22:02:20.419,1.600924,1.725303,1.729178,1.714302
2020-11-15 22:02:20.436,1.601174,1.729803,1.730428,1.714552
2020-11-15 22:02:20.453,1.601049,1.727178,1.740928,1.714052
2020-11-15 22:02:20.470,1.601924,1.725053,1.735553,1.715427
2020-11-15 22:02:20.487,1.601674,1.716677,1.734928,1.715052
2020-11-15 22:02:20.504,1.601174,1.719802,1.726428,1.714802
2020-11-15 22:02:20.521,1.601299,1.719802,1.728178,1.714177
2020-11-15 22:02:20.538,1.601049,1.726803,1.729053,1.713427
2020-11-15 22:02:20.555,1.600924,1.727803,1.731678,1.715052
2020-11-15 22:02:20.572,1.601924,1.726678,1.740178,1.714302
2020-11-15 22:02:20.589,1.600299,1.720678,1.735303,1.716427
2020-11-15 22:02:20.606,1.601424,1.719052,1.734678,1.715552
2020-11-15 22:02:20.623,1.600549,1.720428,1.725928,1.715052
2020-11-15 22:02:20.640,1.601299,1.723553,1.727553,1.715302
2020-11-15 22:02:20.657,1.600424,1.732053,1.728803,1.715052
2020-11-15 22:02:20.674,1.600424,1.727553,1.734053,1.714802
2020-11-15 22:02:20.691,1.601674,1.726553,1.737803,1.714802
2020-11-15 22:02:20.708,1.601299,1.719427,1.735678,1.715927
2020-11-15 22:02:20.725,1.600549,1.720428,1.730303,1.715552
2020-11-15 22:02:20.742,1.602299,1.720428,1.725178,1.715427
2020-11-15 22:02:20.759,1.602174,1.723803,1.728803,1.714302
2020-11-15 22:02:20.776,1.601924,1.732428,1.730928,1.714427
2020-11-15 22:02:20.793,1.601924,1.726678,1.740303,1.714302
2020-11-15 22:02:20.810,1.601674,1.725678,1.736053,1.714552
2020-11-15 22:02:20.827,1.600799,1.717177,1.735053,1.715177
2020-11-15 22:02:20.844,1.600299,1.719802,1.728678,1.714552
2020-11-15 22:02:20.861,1.602549,1.720052,1.727803,1.715052
2020-11-15 22:02:20.878,1.601049,1.730178,1.728928,1.713927
2020-11-15 22:02:20.895,1.602174,1.727803,1.732053,1.714802
2020-11-15 22:02:20.912,1.601299,1.726303,1.740928,1.715052
2020-11-15 22:02:20.929,1.601799,1.722303,1.735053,1.715302
2020-11-15 22:02:20.946,1.601299,1.717427,1.734803,1.715552
2020-11-15 22:02:20.963,1.601049,1.720302,1.726553,1.715302
2020-11-15 22:02:20.980,1.601424,1.722678,1.728303,1.715052
2020-11-15 22:02:20.997,1.601799,1.726553,1.728428,1.714052
2020-11-15 22:02:21.016,1.601174,1.728053,1.729678,1.714802
2020-11-15 22:02:21.033,1.601424,1.726303,1.738678,1.715052
2020-11-15 22:02:21.050,1.600549,1.724803,1.735053,1.715552
2020-11-15 22:02:21.067,1.601049,1.715552,1.734678,1.715177
2020-11-15 22:02:21.084,1.600299,1.721053,1.725928,1.715552
2020-11-15 22:02:21.101,1.601549,1.720803,1.727803,1.715052
2020-11-15 22:02:21.118,1.601299,1.729053,1.729428,1.713802
2020-11-15 22:02:21.135,1.601174,1.727178,1.734678,1.714427
2020-11-15 22:02:21.152,1.602549,1.726303,1.738553,1.714927
2020-11-15 22:02:21.169,1.601174,1.723553,1.735428,1.715802
2020-11-15 22:02:21.186,1.600799,1.715177,1.733553,1.715052
2020-11-15 22:02:21.203,1.602049,1.720678,1.723678,1.715302
2020-11-15 22:02:21.220,1.600924,1.721178,1.728678,1.714302
2020-11-15 22:02:21.237,1.601674,1.729553,1.729053,1.714177
2020-11-15 22:02:21.254,1.601674,1.727178,1.735803,1.714427
2020-11-15 22:02:21.271,1.601799,1.726303,1.736928,1.714677
2020-11-15 22:02:21.288,1.601924,1.722303,1.735303,1.716177
2020-11-15 22:02:21.305,1.601549,1.719427,1.732803,1.715427
2020-11-15 22:02:21.322,1.601174,1.719927,1.723053,1.715927
2020-11-15 22:02:21.339,1.601299,1.725303,1.729428,1.714302
2020-11-15 22:02:21.356,1.602049,1.731053,1.729928,1.714802
2020-11-15 22:02:21.373,1.600674,1.727053,1.737678,1.714552
2020-11-15 22:02:21.390,1.601924,1.725428,1.735553,1.715677
2020-11-15 22:02:21.407,1.601174,1.716802,1.734428,1.715677
2020-11-15 22:02:21.424,1.601424,1.720553,1.732303,1.715802
2020-11-15 22:02:21.441,1.600424,1.720428,1.728553,1.714677
2020-11-15 22:02:21.459,1.600174,1.726803,1.728803,1.713552
2020-11-15 22:02:21.476,1.601549,1.728178,1.732053,1.714177
2020-11-15 22:02:21.493,1.601424,1.727053,1.741178,1.714427
2020-11-15 22:02:21.510,1.601549,1.724428,1.734928,1.714552
2020-11-15 22:02:21.527,1.600674,1.714802,1.734428,1.714802
2020-11-15 22:02:21.544,1.601174,1.719802,1.726178,1.715177
2020-11-15 22:02:21.561,1.602799,1.720678,1.728553,1.714927
2020-11-15 22:02:21.578,1.601299,1.729178,1.729178,1.713427
2020-11-15 22:02:21.595,1.601299,1.726678,1.734428,1.714927
2020-11-15 22:02:21.612,1.601549,1.726178,1.738553,1.715177
2020-11-15 22:02:21.629,1.601424,1.719177,1.736053,1.716177
2020-11-15 22:02:21.646,1.601799,1.715177,1.733553,1.714802
2020-11-15 22:02:21.663,1.601674,1.720678,1.723553,1.714927
2020-11-15 22:02:21.680,1.601549,1.721553,1.728678,1.715052
2020-11-15 22:02:21.698,1.601799,1.729428,1.729803,1.714052
2020-11-15 22:02:21.715,1.601924,1.727178,1.736178,1.714802
2020-11-15 22:02:21.732,1.602299,1.727053,1.736053,1.714677
2020-11-15 22:02:21.749,1.601549,1.722428,1.735803,1.715302
2020-11-15 22:02:21.766,1.600299,1.716802,1.733178,1.714802
2020-11-15 22:02:21.783,1.602049,1.720553,1.722928,1.714927
2020-11-15 22:02:21.800,1.601299,1.722678,1.729178,1.714302
2020-11-15 22:02:21.817,1.600924,1.730178,1.729053,1.713802
2020-11-15 22:02:21.835,1.600424,1.726928,1.732178,1.714927
2020-11-15 22:02:21.852,1.601674,1.727053,1.740928,1.715052
2020-11-15 22:02:21.869,1.601549,1.721303,1.735053,1.715927
2020-11-15 22:02:21.886,1.601049,1.719802,1.734303,1.715552
2020-11-15 22:02:21.903,1.601424,1.720553,1.725303,1.715552
2020-11-15 22:02:21.920,1.601299,1.723428,1.727928,1.714552
2020-11-15 22:02:21.937,1.601299,1.732053,1.728303,1.714677
2020-11-15 22:02:21.954,1.600174,1.727303,1.734303,1.714802
2020-11-15 22:02:21.971,1.602174,1.726928,1.738428,1.714677
2020-11-15 22:02:21.989,1.601174,1.718677,1.735178,1.716177
2020-11-15 22:02:22.006,1.600549,1.721178,1.732928,1.715677
2020-11-15 22:02:22.023,1.600549,1.720803,1.725678,1.715052
2020-11-15 22:02:22.040,1.601674,1.723928,1.729178,1.714802
2020-11-15 22:02:22.057,1.601049,1.732178,1.731553,1.714552
2020-11-15 22:02:22.074,1.600674,1.727303,1.740428,1.714302
2020-11-15 22:02:22.091,1.601174,1.725553,1.735928,1.714927
2020-11-15 22:02:22.108,1.601299,1.718177,1.735928,1.715302
2020-11-15 22:02:22.125,1.601424,1.719552,1.728553,1.715427
2020-11-15 22:02:22.142,1.601674,1.719927,1.728928,1.715052
2020-11-15 22:02:22.159,1.601924,1.725428,1.729678,1.713802
2020-11-15 22:02:22.176,1.601049,1.729553,1.732303,1.714177
2020-11-15 22:02:22.193,1.600424,1.726303,1.740428,1.714677
2020-11-15 22:02:22.210,1.602174,1.722303,1.735678,1.716427
2020-11-15 22:02:22.227,1.598924,1.717427,1.735803,1.715552
2020-11-15 22:02:22.244,1.600799,1.720928,1.727053,1.715427
2020-11-15 22:02:22.261,1.601674,1.722553,1.728428,1.714927
2020-11-15 22:02:22.278,1.600799,1.731678,1.728678,1.714802
2020-11-15 22:02:22.295,1.601299,1.727678,1.732428,1.714927
2020-11-15 22:02:22.312,1.602799,1.727303,1.739803,1.714927
2020-11-15 22:02:22.329,1.601924,1.720428,1.735428,1.716677
2020-11-15 22:02:22.346,1.600299,1.718927,1.733428,1.715927
2020-11-15 22:02:22.363,1.601549,1.720928,1.724178,1.715677
2020-11-15 22:02:22.380,1.600799,1.722803,1.729053,1.714427
2020-11-15 22:02:22.397,1.601049,1.731428,1.729803,1.714052
2020-11-15 22:02:22.414,1.601424,1.727303,1.739428,1.715052
2020-11-15 22:02:22.431,1.601174,1.726553,1.736178,1.714927
2020-11-15 22:02:22.448,1.600549,1.718302,1.735428,1.716677
2020-11-15 22:02:22.465,1.600549,1.719552,1.730178,1.715052
2020-11-15 22:02:22.482,1.601299,1.720052,1.725678,1.715427
2020-11-15 22:02:22.499,1.601424,1.723678,1.729178,1.713802
2020-11-15 22:02:22.516,1.600674,1.730428,1.731303,1.713927
2020-11-15 22:02:22.533,1.601924,1.726053,1.740553,1.715052
2020-11-15 22:02:22.550,1.601674,1.725053,1.735678,1.715677
2020-11-15 22:02:22.568,1.600549,1.715052,1.735178,1.715677
2020-11-15 22:02:22.585,1.600799,1.720928,1.727928,1.715427
2020-11-15 22:02:22.602,1.601674,1.721928,1.728303,1.715177
2020-11-15 22:02:22.619,1.600549,1.729803,1.728553,1.713802
2020-11-15 22:02:22.636,1.600674,1.727178,1.731303,1.714177
2020-11-15 22:02:22.653,1.601549,1.726053,1.738303,1.714427
2020-11-15 22:02:22.671,1.601424,1.724928,1.735928,1.715052
2020-11-15 22:02:22.688,1.600299,1.716052,1.735053,1.716052
2020-11-15 22:02:22.705,1.600549,1.720177,1.731553,1.714802
2020-11-15 22:02:22.722,1.601299,1.720553,1.723553,1.715177
2020-11-15 22:02:22.739,1.600799,1.727303,1.729303,1.713927
2020-11-15 22:02:22.756,1.600924,1.727803,1.732303,1.713802
2020-11-15 22:02:22.773,1.600049,1.727678,1.740178,1.714677
2020-11-15 22:02:22.790,1.600924,1.724178,1.735303,1.715677
2020-11-15 22:02:22.807,1.600299,1.715802,1.733928,1.714552
2020-11-15 22:02:22.824,1.600299,1.720177,1.724928,1.714927
2020-11-15 22:02:22.841,1.601424,1.721303,1.728303,1.714677
2020-11-15 22:02:22.858,1.600799,1.729053,1.728928,1.713302
2020-11-15 22:02:22.875,1.600549,1.727053,1.734553,1.714302
2020-11-15 22:02:22.892,1.601549,1.726428,1.737428,1.713802
2020-11-15 22:02:22.909,1.600924,1.722928,1.735303,1.716427
2020-11-15 22:02:22.926,1.601174,1.720052,1.732928,1.714927
2020-11-15 22:02:22.943,1.599299,1.720553,1.723178,1.714802
2020-11-15 22:02:22.960,1.601049,1.723678,1.728303,1.714052
2020-11-15 22:02:22.978,1.601049,1.731803,1.728428,1.714302
2020-11-15 22:02:22.995,1.600299,1.726803,1.736553,1.713927
2020-11-15 22:02:23.012,1.600924,1.725178,1.735303,1.714927
2020-11-15 22:02:23.029,1.600174,1.717177,1.735178,1.715802
2020-11-15 22:02:23.046,1.600174,1.719927,1.732428,1.715552
2020-11-15 22:02:23.063,1.600924,1.720803,1.722428,1.715052
2020-11-15 22:02:23.080,1.601174,1.725803,1.728303,1.713927
2020-11-15 22:02:23.097,1.600299,1.729303,1.729053,1.714552
2020-11-15 22:02:23.114,1.599924,1.726928,1.740678,1.714302
2020-11-15 22:02:23.131,1.600799,1.725178,1.735553,1.714927
2020-11-15 22:02:23.148,1.599799,1.714802,1.734678,1.714927
2020-11-15 22:02:23.165,1.601049,1.720928,1.725303,1.714802
2020-11-15 22:02:23.182,1.601174,1.720553,1.728678,1.714552
2020-11-15 22:02:23.199,1.600549,1.727053,1.729178,1.713052
2020-11-15 22:02:23.216,1.599924,1.726428,1.732428,1.714177
2020-11-15 22:02:23.233,1.601049,1.726428,1.739553,1.713677
2020-11-15 22:02:23.250,1.601924,1.723928,1.734928,1.715177
2020-11-15 22:02:23.267,1.600174,1.714677,1.733553,1.715427
2020-11-15 22:02:23.284,1.600674,1.720803,1.724928,1.715302
2020-11-15 22:02:23.301,1.601424,1.723803,1.727428,1.714052
2020-11-15 22:02:23.318,1.600299,1.732178,1.729178,1.714302
2020-11-15 22:02:23.335,1.600049,1.727178,1.734553,1.714052
2020-11-15 22:02:23.352,1.600549,1.725928,1.736303,1.715302
2020-11-15 22:02:23.369,1.600924,1.717302,1.734303,1.717052
2020-11-15 22:02:23.386,1.600799,1.720177,1.732178,1.714927
2020-11-15 22:02:23.403,1.600424,1.720177,1.722053,1.714927
2020-11-15 22:02:23.420,1.600299,1.724303,1.728928,1.714552
2020-11-15 22:02:23.437,1.600799,1.731803,1.731428,1.714552
2020-11-15 22:02:23.454,1.601049,1.727053,1.740053,1.713927
2020-11-15 22:02:23.471,1.601799,1.725678,1.735678,1.713302
2020-11-15 22:02:23.490,1.600799,1.721053,1.735928,1.716052
2020-11-15 22:02:23.507,1.600549,1.718552,1.732553,1.715552
2020-11-15 22:02:23.524,1.601299,1.720428,1.723053,1.714677
2020-11-15 22:02:23.541,1.599799,1.722553,1.729053,1.714302
2020-11-15 22:02:23.558,1.600924,1.731303,1.729553,1.713552
2020-11-15 22:02:23.575,1.600424,1.726428,1.738553,1.714302
2020-11-15 22:02:23.592,1.601674,1.726178,1.736178,1.714302
2020-11-15 22:02:23.609,1.600674,1.719052,1.735303,1.715927
2020-11-15 22:02:23.626,1.600799,1.719802,1.731178,1.715177
2020-11-15 22:02:23.643,1.600049,1.720177,1.724803,1.715177
2020-11-15 22:02:23.660,1.600424,1.728178,1.728428,1.713677
2020-11-15 22:02:23.677,1.600799,1.726803,1.730803,1.714927
2020-11-15 22:02:23.694,1.600799,1.726428,1.739553,1.714302
2020-11-15 22:02:23.711,1.600549,1.723928,1.736178,1.715552
2020-11-15 22:02:23.728,1.601674,1.716427,1.734678,1.714927
2020-11-15 22:02:23.745,1.600799,1.719677,1.727553,1.715177
2020-11-15 22:02:23.762,1.601674,1.721553,1.726553,1.714927
2020-11-15 22:02:23.779,1.601299,1.729678,1.729303,1.713427
2020-11-15 22:02:23.796,1.601049,1.727178,1.735178,1.714552
2020-11-15 22:02:23.813,1.602174,1.727303,1.736303,1.714302
2020-11-15 22:02:23.830,1.597799,1.723178,1.735053,1.716052
2020-11-15 22:02:23.847,1.601049,1.716427,1.732678,1.715552
2020-11-15 22:02:23.864,1.600799,1.719927,1.722553,1.714927
2020-11-15 22:02:23.881,1.600674,1.721928,1.728928,1.714302
2020-11-15 22:02:23.898,1.600424,1.729678,1.729053,1.713302
2020-11-15 22:02:23.915,1.600799,1.727303,1.737303,1.713427
2020-11-15 22:02:23.932,1.601924,1.725803,1.735303,1.715177
2020-11-15 22:02:23.950,1.600799,1.720553,1.735428,1.716052
2020-11-15 22:02:23.967,1.602174,1.718802,1.732053,1.714552
2020-11-15 22:02:23.984,1.601299,1.720177,1.723053,1.714677
2020-11-15 22:02:24.001,1.601049,1.722803,1.728553,1.714052
2020-11-15 22:02:24.018,1.600799,1.731928,1.730553,1.714052
2020-11-15 22:02:24.035,1.600674,1.726428,1.738803,1.714302
2020-11-15 22:02:24.052,1.600674,1.726178,1.735803,1.715177
2020-11-15 22:02:24.069,1.600674,1.718177,1.735553,1.715302
2020-11-15 22:02:24.086,1.600674,1.720302,1.730553,1.715552
2020-11-15 22:02:24.103,1.600799,1.720803,1.725303,1.715177
2020-11-15 22:02:24.120,1.601424,1.728053,1.728678,1.714177
2020-11-15 22:02:24.137,1.600174,1.727428,1.730053,1.714802
2020-11-15 22:02:24.154,1.601174,1.727053,1.739553,1.714302
2020-11-15 22:02:24.171,1.600549,1.723803,1.735803,1.715677
2020-11-15 22:02:24.188,1.601049,1.715677,1.734803,1.715302
2020-11-15 22:02:24.205,1.598799,1.720553,1.728053,1.715427
2020-11-15 22:02:24.222,1.601549,1.721428,1.728678,1.715052
2020-11-15 22:02:24.239,1.600674,1.729928,1.728803,1.713802
2020-11-15 22:02:24.256,1.600924,1.727178,1.735928,1.714302
2020-11-15 22:02:24.273,1.602424,1.726678,1.735678,1.713802
2020-11-15 22:02:24.290,1.601049,1.722053,1.734803,1.715927
2020-11-15 22:02:24.307,1.600924,1.715677,1.734803,1.715427
2020-11-15 22:02:24.326,1.600049,1.719802,1.726553,1.714802
2020-11-15 22:02:24.343,1.601174,1.720052,1.727928,1.713927
2020-11-15 22:02:24.360,1.600549,1.726678,1.729178,1.714052
2020-11-15 22:02:24.377,1.600799,1.727553,1.732303,1.713802
2020-11-15 22:02:24.394,1.600674,1.725678,1.739428,1.716427
2020-11-15 22:02:24.411,1.601799,1.720428,1.735178,1.716302
2020-11-15 22:02:24.428,1.601924,1.719802,1.733803,1.715427
2020-11-15 22:02:24.445,1.600174,1.720553,1.724553,1.715552
2020-11-15 22:02:24.462,1.600924,1.722553,1.727928,1.714427
2020-11-15 22:02:24.479,1.600049,1.732303,1.728803,1.713927
2020-11-15 22:02:24.496,1.600049,1.726553,1.733678,1.714427
2020-11-15 22:02:24.513,1.600799,1.726553,1.737553,1.714677
2020-11-15 22:02:24.530,1.600174,1.718802,1.734428,1.715802
2020-11-15 22:02:24.547,1.600549,1.720052,1.732553,1.715427
2020-11-15 22:02:24.564,1.600924,1.720177,1.722553,1.714802
2020-11-15 22:02:24.581,1.600799,1.723303,1.728428,1.714177
2020-11-15 22:02:24.598,1.602299,1.731803,1.731053,1.713802
2020-11-15 22:02:24.615,1.601799,1.727053,1.740428,1.714427
2020-11-15 22:02:24.632,1.600924,1.725803,1.735178,1.714552
2020-11-15 22:02:24.649,1.600299,1.716552,1.734553,1.715427
2020-11-15 22:02:24.666,1.599924,1.719177,1.727553,1.714427
2020-11-15 22:02:24.683,1.602049,1.720553,1.728303,1.714427
2020-11-15 22:02:24.700,1.600799,1.724928,1.728803,1.713677
2020-11-15 22:02:24.717,1.600924,1.728678,1.731303,1.713802
2020-11-15 22:02:24.734,1.600799,1.727303,1.740803,1.714427
2020-11-15 22:02:24.751,1.600549,1.721678,1.734428,1.714802
2020-11-15 22:02:24.768,1.600674,1.717427,1.734178,1.714927
2020-11-15 22:02:24.785,1.599674,1.720803,1.725428,1.715052
2020-11-15 22:02:24.802,1.601549,1.722303,1.728053,1.714427
2020-11-15 22:02:24.819,1.600674,1.730928,1.728428,1.713927
2020-11-15 22:02:24.836,1.601174,1.727053,1.732303,1.714302
2020-11-15 22:02:24.853,1.600924,1.726178,1.738553,1.714802
2020-11-15 22:02:24.870,1.600924,1.720052,1.734678,1.715302
2020-11-15 22:02:24.888,1.600424,1.719427,1.731053,1.715427
2020-11-15 22:02:24.905,1.601049,1.720052,1.724178,1.714927
2020-11-15 22:02:24.922,1.599924,1.722678,1.728678,1.713802
2020-11-15 22:02:24.939,1.599299,1.731553,1.729803,1.713802
2020-11-15 22:02:24.956,1.601049,1.726553,1.739303,1.714427
2020-11-15 22:02:24.973,1.601424,1.726178,1.736053,1.714677
2020-11-15 22:02:24.990,1.601299,1.717677,1.735178,1.715802
2020-11-15 22:02:25.007,1.600799,1.718802,1.728803,1.714427
2020-11-15 22:02:25.024,1.600924,1.720428,1.726803,1.713927
2020-11-15 22:02:25.041,1.601549,1.723803,1.728803,1.713427
2020-11-15 22:02:25.058,1.599174,1.730678,1.730928,1.713302
2020-11-15 22:02:25.075,1.600424,1.725928,1.740428,1.714552
2020-11-15 22:02:25.092,1.600549,1.722803,1.735303,1.715302
2020-11-15 22:02:25.109,1.601049,1.715927,1.735303,1.715052
2020-11-15 22:02:25.126,1.600674,1.720177,1.726428,1.714177
2020-11-15 22:02:25.144,1.600299,1.720553,1.723178,1.714802
2020-11-15 22:02:25.161,1.600674,1.726428,1.728428,1.714177
2020-11-15 22:02:25.179,1.600049,1.728928,1.729178,1.714302
2020-11-15 22:02:25.196,1.601424,1.727303,1.737803,1.714427
2020-11-15 22:02:25.213,1.601549,1.725053,1.735303,1.715427
2020-11-15 22:02:25.230,1.599674,1.716052,1.735178,1.715052
2020-11-15 22:02:25.247,1.602549,1.720302,1.730553,1.715052
2020-11-15 22:02:25.264,1.601299,1.720928,1.724303,1.714677
2020-11-15 22:02:25.281,1.599799,1.728303,1.728053,1.713552
2020-11-15 22:02:25.298,1.599799,1.726928,1.732928,1.714802
2020-11-15 22:02:25.315,1.600549,1.726928,1.739678,1.714052
2020-11-15 22:02:25.332,1.601924,1.723803,1.735178,1.715802
2020-11-15 22:02:25.349,1.601049,1.714552,1.732928,1.714927
2020-11-15 22:02:25.366,1.601799,1.719802,1.724678,1.714302
2020-11-15 22:02:25.383,1.600174,1.721678,1.728803,1.714552
2020-11-15 22:02:25.400,1.600049,1.730303,1.728678,1.712927
2020-11-15 22:02:25.417,1.600674,1.726053,1.734428,1.714427
2020-11-15 22:02:25.434,1.603174,1.726678,1.736428,1.713927
2020-11-15 22:02:25.451,1.600549,1.721678,1.734928,1.715427
2020-11-15 22:02:25.468,1.601049,1.716302,1.732678,1.715177
2020-11-15 22:02:25.485,1.600549,1.719427,1.722928,1.715302
2020-11-15 22:02:25.502,1.600174,1.724428,1.728053,1.714177
2020-11-15 22:02:25.519,1.600174,1.731053,1.728803,1.713927
2020-11-15 22:02:25.536,1.600049,1.726303,1.737178,1.713802
2020-11-15 22:02:25.553,1.603549,1.726428,1.735678,1.713677
2020-11-15 22:02:25.571,1.601174,1.719802,1.734678,1.715427
2020-11-15 22:02:25.588,1.600424,1.719677,1.731678,1.714802
2020-11-15 22:02:25.605,1.600924,1.720428,1.722928,1.714677
2020-11-15 22:02:25.622,1.600424,1.726303,1.729053,1.714177
2020-11-15 22:02:25.639,1.601174,1.728303,1.729303,1.714052
2020-11-15 22:02:25.656,1.601174,1.727053,1.738803,1.714052
2020-11-15 22:02:25.673,1.600799,1.724678,1.735678,1.715427
2020-11-15 22:02:25.690,1.600549,1.715177,1.735053,1.714927
2020-11-15 22:02:25.707,1.600049,1.720302,1.729928,1.715052
2020-11-15 22:02:25.724,1.599424,1.720803,1.724803,1.714802
2020-11-15 22:02:25.741,1.600299,1.728928,1.727928,1.714052
2020-11-15 22:02:25.758,1.599674,1.727178,1.734053,1.713677
2020-11-15 22:02:25.775,1.602549,1.726553,1.738678,1.714302
2020-11-15 22:02:25.792,1.601674,1.723428,1.735053,1.715427
2020-11-15 22:02:25.809,1.601049,1.715177,1.732678,1.715302
2020-11-15 22:02:25.826,1.600924,1.719802,1.723053,1.714427
2020-11-15 22:02:25.843,1.600549,1.720928,1.728428,1.714177
2020-11-15 22:02:25.860,1.600049,1.729803,1.729053,1.713927
2020-11-15 22:02:25.877,1.599424,1.727178,1.735303,1.713927
2020-11-15 22:02:25.894,1.599674,1.726428,1.735803,1.713802
2020-11-15 22:02:25.911,1.601049,1.721303,1.735178,1.714802
2020-11-15 22:02:25.928,1.600549,1.716052,1.732553,1.714677
2020-11-15 22:02:25.945,1.601799,1.719677,1.722928,1.715052
2020-11-15 22:02:25.962,1.601174,1.719427,1.728178,1.714052
2020-11-15 22:02:25.981,1.602424,1.725678,1.729053,1.713302
2020-11-15 22:02:25.998,1.602424,1.726678,1.732053,1.714177
2020-11-15 22:02:26.015,1.601799,1.726053,1.739678,1.714552
2020-11-15 22:02:26.032,1.600424,1.719427,1.735178,1.715552
2020-11-15 22:02:26.049,1.602799,1.719427,1.733678,1.714677
2020-11-15 22:02:26.066,1.601299,1.720302,1.724428,1.714677
2020-11-15 22:02:26.083,1.600549,1.722553,1.728678,1.714552
2020-11-15 22:02:26.100,1.599424,1.731928,1.728553,1.714177
2020-11-15 22:02:26.117,1.600924,1.726678,1.734178,1.714177
2020-11-15 22:02:26.134,1.600674,1.726053,1.736553,1.714802
2020-11-15 22:02:26.151,1.602299,1.718552,1.734553,1.716427
2020-11-15 22:02:26.168,1.599049,1.719677,1.732428,1.714552
2020-11-15 22:02:26.185,1.600674,1.720428,1.726053,1.714802
2020-11-15 22:02:26.202,1.601799,1.724428,1.728553,1.713927
2020-11-15 22:02:26.219,1.601174,1.731553,1.731053,1.714552
2020-11-15 22:02:26.236,1.601549,1.726678,1.740178,1.714302
2020-11-15 22:02:26.254,1.601049,1.725053,1.735053,1.714802
2020-11-15 22:02:26.271,1.603424,1.717052,1.734428,1.715677
2020-11-15 22:02:26.288,1.600799,1.719677,1.732303,1.715052
2020-11-15 22:02:26.305,1.601924,1.720678,1.722053,1.714177
2020-11-15 22:02:26.322,1.599299,1.725428,1.727803,1.713927
2020-11-15 22:02:26.339,1.600299,1.729178,1.729053,1.714552
2020-11-15 22:02:26.356,1.599799,1.727553,1.737678,1.714427
2020-11-15 22:02:26.373,1.603174,1.724553,1.735553,1.715677
2020-11-15 22:02:26.390,1.600174,1.715802,1.734178,1.714927
2020-11-15 22:02:26.407,1.600174,1.719677,1.725428,1.714802
2020-11-15 22:02:26.424,1.601549,1.720553,1.727803,1.714677
2020-11-15 22:02:26.441,1.599674,1.726428,1.728178,1.713927
2020-11-15 22:02:26.458,1.600674,1.726803,1.733553,1.714552
2020-11-15 22:02:26.475,1.602924,1.726553,1.739178,1.713802
2020-11-15 22:02:26.492,1.600174,1.723303,1.735428,1.714427
2020-11-15 22:02:26.509,1.600549,1.714802,1.733928,1.714677
2020-11-15 22:02:26.527,1.600674,1.720052,1.724428,1.714802
2020-11-15 22:02:26.544,1.601549,1.720803,1.728303,1.714052
2020-11-15 22:02:26.561,1.601299,1.729303,1.728553,1.713677
2020-11-15 22:02:26.578,1.599299,1.726678,1.735053,1.713677
2020-11-15 22:02:26.595,1.604049,1.726553,1.736678,1.713927
2020-11-15 22:02:26.612,1.598799,1.721803,1.735053,1.716177
2020-11-15 22:02:26.629,1.600174,1.719802,1.732928,1.716052
2020-11-15 22:02:26.646,1.600299,1.720928,1.723428,1.715302
2020-11-15 22:02:26.663,1.602049,1.724178,1.728678,1.713927
2020-11-15 22:02:26.680,1.600049,1.730678,1.729428,1.715052
2020-11-15 22:02:26.697,1.599799,1.726803,1.737428,1.714802
2020-11-15 22:02:26.714,1.601549,1.724803,1.735803,1.715927
2020-11-15 22:02:26.731,1.601299,1.717052,1.734928,1.715552
2020-11-15 22:02:26.748,1.601674,1.720052,1.731678,1.715302
2020-11-15 22:02:26.765,1.601424,1.720428,1.723178,1.715677
2020-11-15 22:02:26.782,1.601174,1.726428,1.728053,1.713677
2020-11-15 22:02:26.800,1.600549,1.732053,1.728178,1.715177
2020-11-15 22:02:26.818,1.600924,1.727178,1.733428,1.714302
2020-11-15 22:02:26.835,1.601799,1.726928,1.736303,1.715052
2020-11-15 22:02:26.852,1.601299,1.719052,1.735928,1.716552
2020-11-15 22:02:26.869,1.600299,1.720052,1.730053,1.716052
2020-11-15 22:02:26.886,1.601674,1.720553,1.725178,1.715177
2020-11-15 22:02:26.903,1.600549,1.723553,1.729053,1.714052
2020-11-15 22:02:26.920,1.600799,1.732803,1.731553,1.714302
2020-11-15 22:02:26.937,1.601049,1.726428,1.740178,1.714552
2020-11-15 22:02:26.954,1.601049,1.725303,1.735803,1.714802
2020-11-15 22:02:26.971,1.600424,1.717552,1.735053,1.715677
2020-11-15 22:02:26.988,1.600674,1.719427,1.727803,1.714927
2020-11-15 22:02:27.005,1.601299,1.719552,1.727928,1.714302
2020-11-15 22:02:27.022,1.600049,1.724553,1.728928,1.713802
2020-11-15 22:02:27.039,1.600674,1.727553,1.731428,1.714552
2020-11-15 22:02:27.056,1.601049,1.726803,1.740803,1.714302
2020-11-15 22:02:27.073,1.600924,1.722428,1.735178,1.716427
2020-11-15 22:02:27.090,1.600424,1.717802,1.735178,1.715427
2020-11-15 22:02:27.107,1.600424,1.720928,1.725303,1.715302
2020-11-15 22:02:27.124,1.600799,1.722053,1.727803,1.714552
2020-11-15 22:02:27.141,1.600549,1.731553,1.728553,1.714302
2020-11-15 22:02:27.158,1.599424,1.727178,1.731678,1.714677
2020-11-15 22:02:27.175,1.601674,1.726428,1.739428,1.714927
2020-11-15 22:02:27.192,1.600049,1.720052,1.734303,1.716052
2020-11-15 22:02:27.209,1.600799,1.719427,1.733303,1.714677
2020-11-15 22:02:27.226,1.600799,1.720678,1.724053,1.715302
2020-11-15 22:02:27.243,1.600549,1.722678,1.728428,1.714302
2020-11-15 22:02:27.260,1.599799,1.731803,1.730428,1.714802
2020-11-15 22:02:27.278,1.601424,1.727053,1.739303,1.714302
2020-11-15 22:02:27.295,1.601049,1.725553,1.735303,1.714802
2020-11-15 22:02:27.312,1.601924,1.718052,1.735928,1.715427
2020-11-15 22:02:27.329,1.599549,1.720177,1.729303,1.714802
2020-11-15 22:02:27.346,1.600299,1.720428,1.726053,1.714802
2020-11-15 22:02:27.363,1.599674,1.723678,1.728678,1.713802
2020-11-15 22:02:27.380,1.600299,1.730678,1.730678,1.713927
2020-11-15 22:02:27.397,1.601924,1.726428,1.740178,1.713927
2020-11-15 22:02:27.414,1.600924,1.723428,1.735178,1.715302
2020-11-15 22:02:27.431,1.599549,1.715677,1.734428,1.715177
2020-11-15 22:02:27.448,1.599674,1.720428,1.727053,1.715427
2020-11-15 22:02:27.465,1.601924,1.721178,1.727303,1.714927
2020-11-15 22:02:27.482,1.600549,1.730803,1.728178,1.713677
2020-11-15 22:02:27.499,1.600424,1.727803,1.730678,1.714177
2020-11-15 22:02:27.516,1.600549,1.726553,1.739928,1.714552
2020-11-15 22:02:27.533,1.603424,1.721053,1.734553,1.715552
2020-11-15 22:02:27.550,1.602424,1.717552,1.732553,1.714677
2020-11-15 22:02:27.567,1.600299,1.719552,1.722553,1.714927
2020-11-15 22:02:27.584,1.600424,1.722678,1.728053,1.714177
2020-11-15 22:02:27.601,1.599549,1.730678,1.729678,1.714677
2020-11-15 22:02:27.618,1.600424,1.726428,1.732553,1.714177
2020-11-15 22:02:27.636,1.601549,1.726303,1.738553,1.713927
2020-11-15 22:02:27.653,1.600174,1.723928,1.734803,1.715677
2020-11-15 22:02:27.670,1.600549,1.714802,1.733678,1.715052
2020-11-15 22:02:27.687,1.600549,1.720553,1.724553,1.714802
2020-11-15 22:02:27.704,1.602174,1.720678,1.727928,1.714177
2020-11-15 22:02:27.721,1.600549,1.728928,1.728428,1.713302
2020-11-15 22:02:27.739,1.598924,1.727303,1.735053,1.713927
2020-11-15 22:02:27.756,1.601549,1.726178,1.736303,1.715177
2020-11-15 22:02:27.773,1.601424,1.717927,1.734803,1.715427
2020-11-15 22:02:27.790,1.600424,1.719677,1.732553,1.714802
2020-11-15 22:02:27.807,1.601049,1.720553,1.723053,1.714677
2020-11-15 22:02:27.824,1.600049,1.724303,1.727678,1.714302
2020-11-15 22:02:27.841,1.600299,1.730553,1.728803,1.714677
2020-11-15 22:02:27.858,1.599674,1.726678,1.737428,1.714052
2020-11-15 22:02:27.875,1.601049,1.724928,1.734428,1.715052
2020-11-15 22:02:27.892,1.600674,1.716302,1.735178,1.716052
2020-11-15 22:02:27.909,1.600174,1.719927,1.726553,1.715552
2020-11-15 22:02:27.926,1.600549,1.720553,1.727928,1.715052
2020-11-15 22:02:27.943,1.600799,1.726553,1.728428,1.713677
2020-11-15 22:02:27.960,1.600549,1.727803,1.731553,1.713552
2020-11-15 22:02:27.977,1.601174,1.726053,1.739928,1.713552
2020-11-15 22:02:27.994,1.600299,1.724803,1.735178,1.715427
2020-11-15 22:02:28.011,1.600424,1.715177,1.733553,1.715302
2020-11-15 22:02:28.028,1.600549,1.719677,1.725178,1.714552
2020-11-15 22:02:28.045,1.600174,1.719802,1.727928,1.713677
2020-11-15 22:02:28.062,1.599424,1.727928,1.729428,1.713552
2020-11-15 22:02:28.079,1.600799,1.726678,1.733803,1.714677
2020-11-15 22:02:28.096,1.600549,1.726303,1.738178,1.714927
2020-11-15 22:02:28.113,1.600799,1.718302,1.735178,1.716552
2020-11-15 22:02:28.130,1.599424,1.719802,1.732553,1.714927
2020-11-15 22:02:28.147,1.600049,1.720803,1.723553,1.714802
2020-11-15 22:02:28.164,1.600424,1.723303,1.727928,1.713677
2020-11-15 22:02:28.181,1.600924,1.732928,1.728178,1.714427
2020-11-15 22:02:28.198,1.600174,1.727178,1.734803,1.714552
2020-11-15 22:02:28.215,1.600299,1.725678,1.735303,1.714427
2020-11-15 22:02:28.232,1.600799,1.717677,1.735928,1.715927
2020-11-15 22:02:28.249,1.600674,1.719802,1.728303,1.714677
2020-11-15 22:02:28.266,1.601549,1.720302,1.727678,1.714552
2020-11-15 22:02:28.283,1.599674,1.725053,1.728178,1.714177
2020-11-15 22:02:28.300,1.600049,1.730178,1.731178,1.714052
2020-11-15 22:02:28.317,1.600299,1.726303,1.740553,1.713927
2020-11-15 22:02:28.334,1.599424,1.724303,1.734928,1.714302
2020-11-15 22:02:28.351,1.600299,1.715552,1.734053,1.715177
2020-11-15 22:02:28.368,1.599924,1.719427,1.725553,1.714302
2020-11-15 22:02:28.385,1.601049,1.720052,1.727928,1.714427
2020-11-15 22:02:28.402,1.599424,1.730303,1.728803,1.714052
2020-11-15 22:02:28.420,1.601174,1.726678,1.732303,1.714552
2020-11-15 22:02:28.437,1.601174,1.726928,1.739678,1.713302
2020-11-15 22:02:28.455,1.600424,1.724553,1.735428,1.715177
2020-11-15 22:02:28.472,1.601174,1.715427,1.735678,1.715552
2020-11-15 22:02:28.489,1.599799,1.720302,1.729303,1.715802
2020-11-15 22:02:28.506,1.601424,1.721178,1.725803,1.714552
2020-11-15 22:02:28.523,1.600049,1.728803,1.728553,1.714052
2020-11-15 22:02:28.540,1.600799,1.726928,1.730428,1.714177
2020-11-15 22:02:28.557,1.601174,1.725553,1.739803,1.714802
2020-11-15 22:02:28.575,1.600799,1.725053,1.735553,1.714052
2020-11-15 22:02:28.592,1.600674,1.716302,1.735178,1.715427
2020-11-15 22:02:28.609,1.599799,1.720177,1.727553,1.715427
2020-11-15 22:02:28.626,1.600299,1.721053,1.727928,1.714677
2020-11-15 22:02:28.643,1.600674,1.729928,1.728678,1.714052
2020-11-15 22:02:28.660,1.600549,1.727303,1.731178,1.714427
2020-11-15 22:02:28.677,1.600424,1.727178,1.741053,1.714552
2020-11-15 22:02:28.694,1.600049,1.721803,1.734928,1.715552
2020-11-15 22:02:28.711,1.600299,1.717427,1.733803,1.714677
2020-11-15 22:02:28.728,1.599174,1.720678,1.725053,1.715302
2020-11-15 22:02:28.745,1.600674,1.722053,1.727428,1.714927
2020-11-15 22:02:28.762,1.599174,1.731053,1.729178,1.714177
2020-11-15 22:02:28.779,1.600549,1.727053,1.738553,1.713677
2020-11-15 22:02:28.796,1.601549,1.727178,1.736178,1.714677
2020-11-15 22:02:28.813,1.600049,1.720177,1.735053,1.716052
2020-11-15 22:02:28.830,1.600549,1.719552,1.730928,1.714802
2020-11-15 22:02:28.847,1.600299,1.719927,1.724053,1.714427
2020-11-15 22:02:28.864,1.599799,1.722178,1.728428,1.713427
2020-11-15 22:02:28.881,1.600549,1.731928,1.730553,1.713927
2020-11-15 22:02:28.898,1.601174,1.726303,1.739303,1.713427
2020-11-15 22:02:28.915,1.600424,1.725303,1.735428,1.715802
2020-11-15 22:02:28.932,1.601174,1.714927,1.734678,1.715302
2020-11-15 22:02:28.949,1.600549,1.720177,1.729303,1.715427
2020-11-15 22:02:28.966,1.600299,1.721178,1.726428,1.714552
2020-11-15 22:02:28.983,1.600299,1.729428,1.728428,1.714177
2020-11-15 22:02:29.000,1.599174,1.726928,1.730678,1.714052
2020-11-15 22:02:29.017,1.600799,1.727053,1.740428,1.714552
2020-11-15 22:02:29.034,1.600424,1.723053,1.735053,1.715177
2020-11-15 22:02:29.051,1.599174,1.715427,1.734553,1.715177
2020-11-15 22:02:29.069,1.600424,1.720302,1.726303,1.714927
2020-11-15 22:02:29.086,1.600549,1.722053,1.727303,1.714552
2020-11-15 22:02:29.103,1.600299,1.729678,1.728803,1.713927
2020-11-15 22:02:29.120,1.600424,1.727178,1.737178,1.714302
2020-11-15 22:02:29.137,1.601174,1.726553,1.735178,1.714052
2020-11-15 22:02:29.154,1.601299,1.721053,1.735178,1.715427
2020-11-15 22:02:29.171,1.600174,1.717927,1.732053,1.714677
2020-11-15 22:02:29.188,1.600424,1.719677,1.722428,1.714677
2020-11-15 22:02:29.205,1.601424,1.722303,1.728303,1.713802
2020-11-15 22:02:29.222,1.600299,1.731053,1.729303,1.713302
2020-11-15 22:02:29.239,1.600424,1.726053,1.737553,1.713052
2020-11-15 22:02:29.256,1.601549,1.726053,1.735803,1.715052
2020-11-15 22:02:29.273,1.600174,1.719177,1.735178,1.716427
2020-11-15 22:02:29.291,1.600674,1.719927,1.732928,1.714302
2020-11-15 22:02:29.308,1.599799,1.720052,1.724178,1.715177
2020-11-15 22:02:29.325,1.600424,1.723053,1.727428,1.713802
2020-11-15 22:02:29.342,1.599549,1.731803,1.728428,1.714302
2020-11-15 22:02:29.359,1.599549,1.726928,1.734928,1.714302
2020-11-15 22:02:29.376,1.601174,1.725678,1.735928,1.714427
2020-11-15 22:02:29.393,1.601549,1.716802,1.734053,1.715052
2020-11-15 22:02:29.410,1.599049,1.719427,1.732553,1.715302
2020-11-15 22:02:29.427,1.600174,1.720428,1.721303,1.714677
2020-11-15 22:02:29.444,1.599924,1.724803,1.727428,1.713052
2020-11-15 22:02:29.461,1.598424,1.729928,1.730803,1.714177
2020-11-15 22:02:29.478,1.601049,1.726178,1.740678,1.713552
2020-11-15 22:02:29.495,1.600549,1.724803,1.735303,1.714677
2020-11-15 22:02:29.513,1.599799,1.716302,1.733678,1.716302
2020-11-15 22:02:29.530,1.600549,1.719677,1.726928,1.714927
2020-11-15 22:02:29.547,1.600799,1.719552,1.727928,1.714552
2020-11-15 22:02:29.564,1.599424,1.725428,1.728428,1.712927
2020-11-15 22:02:29.581,1.599799,1.727553,1.731428,1.713552
2020-11-15 22:02:29.598,1.600049,1.726303,1.740678,1.713927
2020-11-15 22:02:29.615,1.600799,1.723178,1.734928,1.714677
2020-11-15 22:02:29.632,1.601174,1.714802,1.733678,1.714177
2020-11-15 22:02:29.649,1.599674,1.719552,1.725428,1.713802
2020-11-15 22:02:29.666,1.600174,1.719802,1.727553,1.713677
2020-11-15 22:02:29.683,1.600049,1.726928,1.728428,1.712552
2020-11-15 22:02:29.700,1.600049,1.726553,1.733053,1.714552
2020-11-15 22:02:29.717,1.601424,1.726303,1.738678,1.714302
2020-11-15 22:02:29.734,1.600049,1.717677,1.734303,1.714427
2020-11-15 22:02:29.751,1.599549,1.719302,1.732928,1.714802
2020-11-15 22:02:29.768,1.598799,1.719677,1.723553,1.714302
2020-11-15 22:02:29.785,1.600049,1.722803,1.728428,1.713427
2020-11-15 22:02:29.802,1.599299,1.732053,1.727803,1.714177
2020-11-15 22:02:29.819,1.599674,1.726553,1.734928,1.713677
2020-11-15 22:02:29.836,1.600924,1.724928,1.735053,1.714302
2020-11-15 22:02:29.853,1.599674,1.717177,1.734303,1.715052
2020-11-15 22:02:29.870,1.599049,1.719302,1.731678,1.714677
2020-11-15 22:02:29.887,1.600299,1.719927,1.722053,1.714427
2020-11-15 22:02:29.905,1.599924,1.724678,1.728678,1.713177
2020-11-15 22:02:29.922,1.599924,1.729803,1.730678,1.714552
2020-11-15 22:02:29.939,1.600674,1.726428,1.740178,1.714052
2020-11-15 22:02:29.956,1.599924,1.724803,1.735178,1.714177
2020-11-15 22:02:29.973,1.600674,1.715052,1.734053,1.714677
2020-11-15 22:02:29.990,1.599424,1.718802,1.725678,1.714802
2020-11-15 22:02:30.007,1.601174,1.720302,1.727678,1.713802
2020-11-15 22:02:30.024,1.599424,1.726053,1.728303,1.713552
2020-11-15 22:02:30.041,1.599674,1.726803,1.731178,1.713052
2020-11-15 22:02:30.058,1.600549,1.725678,1.740178,1.713427
2020-11-15 22:02:30.075,1.600549,1.723053,1.733928,1.715927
2020-11-15 22:02:30.092,1.599799,1.714052,1.732803,1.713927
2020-11-15 22:02:30.110,1.600674,1.718927,1.729428,1.714427
2020-11-15 22:02:30.127,1.600049,1.719677,1.725678,1.713427
2020-11-15 22:02:30.144,1.599674,1.722428,1.728053,1.713177
2020-11-15 22:02:30.162,1.600424,1.730553,1.730178,1.712927
2020-11-15 22:02:30.179,1.600549,1.725928,1.740053,1.713052
2020-11-15 22:02:30.196,1.600174,1.725428,1.735178,1.715052
2020-11-15 22:02:30.213,1.600049,1.714802,1.734928,1.714927
2020-11-15 22:02:30.230,1.599799,1.719802,1.727303,1.714802
2020-11-15 22:02:30.247,1.600674,1.720553,1.727428,1.713927
2020-11-15 22:02:30.264,1.599674,1.729678,1.728178,1.713052
2020-11-15 22:02:30.281,1.600049,1.727428,1.730678,1.714302
2020-11-15 22:02:30.298,1.600299,1.726178,1.739803,1.713927
2020-11-15 22:02:30.315,1.601049,1.721178,1.734303,1.714927
2020-11-15 22:02:30.332,1.599674,1.716427,1.733928,1.715052
2020-11-15 22:02:30.349,1.599549,1.719802,1.722053,1.714802
2020-11-15 22:02:30.366,1.600049,1.722053,1.728678,1.714052
2020-11-15 22:02:30.383,1.599924,1.730803,1.728678,1.713052
2020-11-15 22:02:30.400,1.599299,1.726678,1.737303,1.713427
2020-11-15 22:02:30.417,1.600424,1.726053,1.735303,1.714177
2020-11-15 22:02:30.434,1.599799,1.718927,1.735053,1.715052
2020-11-15 22:02:30.451,1.599674,1.719052,1.731178,1.714427
2020-11-15 22:02:30.468,1.600799,1.719302,1.723428,1.713677
2020-11-15 22:02:30.485,1.599674,1.726428,1.727678,1.713177
2020-11-15 22:02:30.502,1.600174,1.727428,1.729428,1.713927
2020-11-15 22:02:30.519,1.600424,1.726053,1.738803,1.713927
2020-11-15 22:02:30.536,1.600549,1.724428,1.733928,1.714302
2020-11-15 22:02:30.553,1.600549,1.717927,1.734303,1.714927
2020-11-15 22:02:30.570,1.599299,1.718552,1.728803,1.714552
2020-11-15 22:02:30.588,1.600549,1.720428,1.725803,1.713427
2020-11-15 22:02:30.605,1.599674,1.728553,1.727928,1.713802
2020-11-15 22:02:30.622,1.599299,1.726553,1.730178,1.714177
2020-11-15 22:02:30.639,1.600299,1.726428,1.739053,1.713802
2020-11-15 22:02:30.656,1.599924,1.722178,1.734303,1.715552
2020-11-15 22:02:30.673,1.600049,1.715677,1.733928,1.714552
2020-11-15 22:02:30.690,1.599424,1.719677,1.726303,1.714552
2020-11-15 22:02:30.707,1.600049,1.721553,1.726428,1.714427
2020-11-15 22:02:30.724,1.599674,1.730053,1.727428,1.713802
2020-11-15 22:02:30.741,1.599549,1.727053,1.736428,1.713302
2020-11-15 22:02:30.758,1.600549,1.726428,1.735428,1.713427
2020-11-15 22:02:30.775,1.599924,1.721303,1.735053,1.714677
2020-11-15 22:02:30.792,1.599674,1.717427,1.731553,1.714552
2020-11-15 22:02:30.809,1.599924,1.719427,1.722053,1.713802
2020-11-15 22:02:30.826,1.599674,1.721678,1.728053,1.713302
2020-11-15 22:02:30.843,1.599674,1.729928,1.728553,1.712927
2020-11-15 22:02:30.860,1.599299,1.726928,1.731928,1.713677
2020-11-15 22:02:30.878,1.599049,1.725678,1.737928,1.713677
2020-11-15 22:02:30.895,1.599799,1.719677,1.733428,1.715427
2020-11-15 22:02:30.912,1.598924,1.719427,1.730928,1.714427
2020-11-15 22:02:30.929,1.600799,1.718927,1.724178,1.714802
2020-11-15 22:02:30.947,1.599799,1.719802,1.727428,1.713552
2020-11-15 22:02:30.964,1.599549,1.728428,1.728553,1.713177
2020-11-15 22:02:30.981,1.600424,1.726678,1.734178,1.713302
2020-11-15 22:02:30.998,1.599674,1.725803,1.735553,1.713927
2020-11-15 22:02:31.015,1.599549,1.722053,1.734803,1.714802
2020-11-15 22:02:31.032,1.600424,1.714302,1.732553,1.714677
2020-11-15 22:02:31.049,1.599924,1.719802,1.723178,1.714052
2020-11-15 22:02:31.066,1.599424,1.720803,1.727803,1.713177
2020-11-15 22:02:31.083,1.599674,1.728678,1.728428,1.712177
2020-11-15 22:02:31.100,1.599924,1.726303,1.736678,1.713177
2020-11-15 22:02:31.117,1.600674,1.725428,1.734928,1.714177
2020-11-15 22:02:31.134,1.600174,1.716552,1.734303,1.714927
2020-11-15 22:02:31.151,1.599674,1.719552,1.731928,1.714802
2020-11-15 22:02:31.168,1.599549,1.720177,1.722428,1.714177
2020-11-15 22:02:31.185,1.599049,1.725178,1.727428,1.712927
2020-11-15 22:02:31.202,1.598924,1.727928,1.728553,1.713802
2020-11-15 22:02:31.219,1.599799,1.726178,1.736428,1.714177
2020-11-15 22:02:31.237,1.599549,1.723803,1.734928,1.714677
2020-11-15 22:02:31.254,1.598799,1.715302,1.734428,1.714552
2020-11-15 22:02:31.271,1.599424,1.719052,1.728928,1.714677
2020-11-15 22:02:31.288,1.600049,1.719927,1.727303,1.714177
2020-11-15 22:02:31.305,1.598424,1.727178,1.727178,1.712302
2020-11-15 22:02:31.322,1.599174,1.726178,1.732178,1.713177
2020-11-15 22:02:31.339,1.599424,1.726053,1.738053,1.713302
2020-11-15 22:02:31.356,1.600174,1.723053,1.734803,1.714802
2020-11-15 22:02:31.373,1.600049,1.714552,1.732803,1.714177
2020-11-15 22:02:31.390,1.599549,1.719677,1.723678,1.713927
2020-11-15 22:02:31.407,1.599674,1.720553,1.727553,1.713552
2020-11-15 22:02:31.424,1.599424,1.728303,1.727928,1.712802
2020-11-15 22:02:31.441,1.600049,1.726553,1.734553,1.713552
2020-11-15 22:02:31.458,1.599924,1.726178,1.735303,1.713052
2020-11-15 22:02:31.475,1.600799,1.722178,1.734678,1.714302
2020-11-15 22:02:31.492,1.599924,1.715552,1.732553,1.714177
2020-11-15 22:02:31.509,1.600299,1.718927,1.722303,1.714052
2020-11-15 22:02:31.526,1.599674,1.723928,1.727803,1.713677
2020-11-15 22:02:31.543,1.599424,1.730053,1.728303,1.713427
2020-11-15 22:02:31.560,1.600049,1.726553,1.735553,1.713052
2020-11-15 22:02:31.577,1.599799,1.725178,1.734928,1.714177
2020-11-15 22:02:31.594,1.600174,1.716302,1.734678,1.715052
2020-11-15 22:02:31.611,1.599924,1.718677,1.731053,1.714677
2020-11-15 22:02:31.628,1.599549,1.719552,1.721428,1.714052
2020-11-15 22:02:31.645,1.599549,1.725553,1.727553,1.713302
2020-11-15 22:02:31.662,1.599549,1.728303,1.728803,1.713552
2020-11-15 22:02:31.679,1.598799,1.725428,1.740428,1.713302
2020-11-15 22:02:31.696,1.599299,1.723928,1.734428,1.714052
2020-11-15 22:02:31.714,1.600049,1.715052,1.733553,1.713927
2020-11-15 22:02:31.731,1.599299,1.719427,1.724678,1.713677
2020-11-15 22:02:31.748,1.600174,1.720052,1.727678,1.712677
2020-11-15 22:02:31.766,1.599674,1.722178,1.727803,1.713052
2020-11-15 22:02:31.783,1.600299,1.731053,1.730053,1.712927
2020-11-15 22:02:31.800,1.600424,1.726178,1.738678,1.714052
2020-11-15 22:02:31.817,1.600674,1.725053,1.735178,1.713802
2020-11-15 22:02:31.834,1.599799,1.716552,1.735428,1.714802
2020-11-15 22:02:31.851,1.599924,1.718927,1.727803,1.714052
2020-11-15 22:02:31.868,1.600049,1.719552,1.726428,1.713552
2020-11-15 22:02:31.885,1.599424,1.723303,1.728053,1.713677
2020-11-15 22:02:31.902,1.599299,1.727553,1.730303,1.713927
2020-11-15 22:02:31.919,1.600424,1.725553,1.739678,1.713552
2020-11-15 22:02:31.936,1.599424,1.721428,1.734178,1.714552
2020-11-15 22:02:31.953,1.598549,1.715802,1.733803,1.714677
2020-11-15 22:02:31.970,1.599674,1.719552,1.725428,1.713927
2020-11-15 22:02:31.987,1.600674,1.721178,1.727178,1.713927
2020-11-15 22:02:32.004,1.599299,1.729803,1.727678,1.713052
2020-11-15 22:02:32.021,1.599174,1.726303,1.731053,1.713427
2020-11-15 22:02:32.038,1.600424,1.726178,1.739053,1.714177
2020-11-15 22:02:32.056,1.599799,1.720052,1.733803,1.715302
2020-11-15 22:02:32.073,1.599049,1.717677,1.732178,1.714177
2020-11-15 22:02:32.090,1.599049,1.719677,1.721928,1.714177
2020-11-15 22:02:32.107,1.600174,1.721928,1.728303,1.713927
2020-11-15 22:02:32.124,1.599549,1.730428,1.729178,1.713302
2020-11-15 22:02:32.141,1.600549,1.725553,1.737678,1.713427
2020-11-15 22:02:32.158,1.600799,1.725053,1.734678,1.713677
2020-11-15 22:02:32.175,1.600174,1.717677,1.734178,1.714927
2020-11-15 22:02:32.192,1.599674,1.718302,1.728803,1.713927
2020-11-15 22:02:32.209,1.600299,1.719177,1.724178,1.712802
2020-11-15 22:02:32.226,1.599049,1.721678,1.728178,1.712677
2020-11-15 22:02:32.243,1.599049,1.726303,1.729553,1.713927
2020-11-15 22:02:32.260,1.600299,1.726178,1.738053,1.713802
2020-11-15 22:02:32.277,1.600299,1.722928,1.734303,1.714427
2020-11-15 22:02:32.294,1.598799,1.714302,1.734178,1.714427
2020-11-15 22:02:32.311,1.598924,1.719302,1.727553,1.714552
2020-11-15 22:02:32.328,1.600799,1.719927,1.725803,1.713677
2020-11-15 22:02:32.345,1.599299,1.728678,1.727053,1.712677
2020-11-15 22:02:32.362,1.599049,1.725928,1.729303,1.713427
2020-11-15 22:02:32.379,1.600174,1.725928,1.735678,1.713302
2020-11-15 22:02:32.396,1.599549,1.721803,1.733928,1.714177
2020-11-15 22:02:32.413,1.599674,1.716302,1.732178,1.714552
2020-11-15 22:02:32.430,1.599299,1.719552,1.722428,1.713552
2020-11-15 22:02:32.447,1.599549,1.721303,1.728053,1.713177
2020-11-15 22:02:32.464,1.598924,1.729178,1.728053,1.713177
2020-11-15 22:02:32.481,1.599549,1.726803,1.737428,1.713052
2020-11-15 22:02:32.498,1.600049,1.725303,1.734178,1.712927
2020-11-15 22:02:32.515,1.599924,1.719677,1.734303,1.714802
2020-11-15 22:02:32.532,1.598299,1.719427,1.730678,1.714177
2020-11-15 22:02:32.549,1.598924,1.718927,1.721928,1.713677
2020-11-15 22:02:32.566,1.599674,1.725553,1.728178,1.713052
2020-11-15 22:02:32.583,1.598174,1.730428,1.727803,1.713177
2020-11-15 22:02:32.602,1.599924,1.725553,1.732928,1.713677
2020-11-15 22:02:32.619,1.599424,1.725928,1.737428,1.713427
2020-11-15 22:02:32.636,1.598799,1.717927,1.734678,1.714927
2020-11-15 22:02:32.653,1.599924,1.718802,1.732303,1.714677
2020-11-15 22:02:32.670,1.599549,1.719677,1.722428,1.714052
2020-11-15 22:02:32.687,1.599424,1.722803,1.727428,1.712802
2020-11-15 22:02:32.704,1.598674,1.731428,1.727803,1.713677
2020-11-15 22:02:32.721,1.599299,1.726053,1.734303,1.713427
2020-11-15 22:02:32.738,1.599924,1.725178,1.734553,1.714052
2020-11-15 22:02:32.755,1.598799,1.716677,1.733803,1.715052
2020-11-15 22:02:32.772,1.598799,1.718302,1.727803,1.714302
2020-11-15 22:02:32.789,1.600549,1.719677,1.727053,1.714552
2020-11-15 22:02:32.806,1.599174,1.723678,1.727553,1.712802
2020-11-15 22:02:32.823,1.599674,1.729303,1.730303,1.713427
2020-11-15 22:02:32.840,1.599799,1.726053,1.740303,1.713177
2020-11-15 22:02:32.857,1.599924,1.723303,1.734553,1.713802
2020-11-15 22:02:32.874,1.600049,1.715302,1.733928,1.714177
2020-11-15 22:02:32.891,1.599174,1.718302,1.725928,1.713552
2020-11-15 22:02:32.908,1.600424,1.719177,1.727303,1.713677
2020-11-15 22:02:32.925,1.600174,1.725053,1.727803,1.713052
2020-11-15 22:02:32.942,1.599424,1.727053,1.731428,1.713802
2020-11-15 22:02:32.959,1.600424,1.726178,1.739428,1.713677
2020-11-15 22:02:32.976,1.600049,1.719552,1.734553,1.714927
2020-11-15 22:02:32.993,1.600049,1.718302,1.732303,1.714052
2020-11-15 22:02:33.010,1.599424,1.719927,1.725303,1.714802
2020-11-15 22:02:33.027,1.599924,1.722303,1.727428,1.713427
2020-11-15 22:02:33.044,1.598799,1.730553,1.726803,1.713052
2020-11-15 22:02:33.061,1.599799,1.725803,1.732553,1.713427
2020-11-15 22:02:33.078,1.599299,1.725678,1.736553,1.713677
2020-11-15 22:02:33.095,1.600424,1.717802,1.734803,1.715552
2020-11-15 22:02:33.112,1.599174,1.719677,1.730178,1.714177
2020-11-15 22:02:33.129,1.600549,1.719302,1.724678,1.714427
2020-11-15 22:02:33.146,1.599549,1.722428,1.727928,1.712802
2020-11-15 22:02:33.164,1.598549,1.730803,1.727178,1.713802
2020-11-15 22:02:33.181,1.599674,1.726428,1.734303,1.714052
2020-11-15 22:02:33.198,1.600174,1.724678,1.734553,1.714302
2020-11-15 22:02:33.215,1.599924,1.716052,1.734428,1.715052
2020-11-15 22:02:33.232,1.599299,1.719177,1.727803,1.714427
2020-11-15 22:02:33.249,1.600924,1.719427,1.727178,1.713802
2020-11-15 22:02:33.266,1.599799,1.723178,1.727803,1.713177
2020-11-15 22:02:33.283,1.599174,1.728803,1.729928,1.713427
2020-11-15 22:02:33.300,1.599674,1.725303,1.740928,1.712427
2020-11-15 22:02:33.317,1.599424,1.723678,1.734303,1.714052
2020-11-15 22:02:33.334,1.599674,1.714802,1.733678,1.714302
2020-11-15 22:02:33.351,1.599299,1.718677,1.725178,1.714427
2020-11-15 22:02:33.368,1.600549,1.720678,1.728053,1.713802
2020-11-15 22:02:33.385,1.599424,1.730303,1.727553,1.713177
2020-11-15 22:02:33.402,1.600049,1.726303,1.730928,1.712302
2020-11-15 22:02:33.420,1.599924,1.725678,1.738178,1.713177
2020-11-15 22:02:33.438,1.599924,1.723553,1.735053,1.714302
2020-11-15 22:02:33.455,1.599799,1.714802,1.734303,1.713802
2020-11-15 22:02:33.472,1.598799,1.720177,1.728928,1.714177
2020-11-15 22:02:33.489,1.599799,1.720052,1.725053,1.714052
2020-11-15 22:02:33.506,1.600799,1.727678,1.727803,1.713177
2020-11-15 22:02:33.523,1.599799,1.726553,1.729803,1.713552
2020-11-15 22:02:33.540,1.600424,1.726553,1.739428,1.713677
2020-11-15 22:02:33.557,1.600299,1.722803,1.734303,1.714802
2020-11-15 22:02:33.574,1.599299,1.714427,1.734053,1.714427
2020-11-15 22:02:33.591,1.599549,1.719927,1.723178,1.714302
2020-11-15 22:02:33.608,1.600424,1.721053,1.727178,1.713552
2020-11-15 22:02:33.625,1.600549,1.728803,1.728303,1.713177
2020-11-15 22:02:33.642,1.599424,1.726553,1.735053,1.713177
2020-11-15 22:02:33.659,1.600924,1.725428,1.735053,1.713177
2020-11-15 22:02:33.676,1.600299,1.721428,1.734178,1.714052
2020-11-15 22:02:33.693,1.599424,1.716177,1.731928,1.713927
2020-11-15 22:02:33.710,1.600674,1.719302,1.722428,1.713677
2020-11-15 22:02:33.727,1.600299,1.720928,1.728178,1.713427
2020-11-15 22:02:33.744,1.599549,1.730178,1.729178,1.713427
2020-11-15 22:02:33.761,1.599924,1.726178,1.737178,1.713177
2020-11-15 22:02:33.778,1.600674,1.725553,1.734928,1.714177
2020-11-15 22:02:33.795,1.599924,1.715552,1.734303,1.714677
2020-11-15 22:02:33.813,1.599799,1.718802,1.730928,1.714177
2020-11-15 22:02:33.830,1.600424,1.720052,1.723053,1.714177
2020-11-15 22:02:33.847,1.600299,1.725928,1.727928,1.713052
2020-11-15 22:02:33.864,1.599924,1.727303,1.728928,1.713427
2020-11-15 22:02:33.881,1.599799,1.725803,1.737928,1.713677
2020-11-15 22:02:33.898,1.599799,1.723178,1.735428,1.713927
2020-11-15 22:02:33.915,1.599299,1.714302,1.734553,1.713802
2020-11-15 22:02:33.932,1.599174,1.719552,1.729053,1.714427
2020-11-15 22:02:33.949,1.599799,1.719927,1.724178,1.714177
2020-11-15 22:02:33.966,1.599299,1.727928,1.727428,1.712427
2020-11-15 22:02:33.983,1.599299,1.726928,1.728928,1.713802
2020-11-15 22:02:34.000,1.599799,1.726053,1.738678,1.713677
2020-11-15 22:02:34.017,1.599674,1.722428,1.734053,1.714802
2020-11-15 22:02:34.034,1.599424,1.713677,1.732678,1.714302
2020-11-15 22:02:34.051,1.599924,1.719427,1.723303,1.714427
2020-11-15 22:02:34.068,1.599549,1.720928,1.727428,1.713552
2020-11-15 22:02:34.085,1.600049,1.728303,1.728053,1.713302
2020-11-15 22:02:34.102,1.599799,1.726553,1.735178,1.713177
2020-11-15 22:02:34.119,1.600549,1.725303,1.735303,1.713052
2020-11-15 22:02:34.136,1.599049,1.721303,1.734553,1.714052
2020-11-15 22:02:34.153,1.598924,1.716052,1.732303,1.714052
2020-11-15 22:02:34.170,1.600174,1.719427,1.722053,1.714427
2020-11-15 22:02:34.187,1.599424,1.720928,1.728053,1.713177
2020-11-15 22:02:34.204,1.599299,1.729553,1.728303,1.713677
2020-11-15 22:02:34.221,1.599299,1.725553,1.736428,1.713802
2020-11-15 22:02:34.238,1.600549,1.725553,1.739928,1.713677
2020-11-15 22:02:34.257,1.600424,1.720302,1.734303,1.715177
2020-11-15 22:02:34.274,1.600174,1.718302,1.732803,1.714552
2020-11-15 22:02:34.291,1.598174,1.718927,1.724303,1.714052
2020-11-15 22:02:34.308,1.600174,1.721928,1.727428,1.713677
2020-11-15 22:02:34.325,1.598674,1.730928,1.727178,1.713677
2020-11-15 22:02:34.342,1.599299,1.726303,1.733178,1.713427
2020-11-15 22:02:34.359,1.600299,1.725553,1.737303,1.714177
2020-11-15 22:02:34.376,1.600299,1.717177,1.733928,1.715427
2020-11-15 22:02:34.393,1.599424,1.719427,1.731428,1.713802
2020-11-15 22:02:34.410,1.598424,1.719427,1.724428,1.714052
2020-11-15 22:02:34.427,1.599424,1.722428,1.727928,1.712927
2020-11-15 22:02:34.444,1.599299,1.731303,1.730053,1.713302
2020-11-15 22:02:34.461,1.599549,1.725928,1.739678,1.712677
2020-11-15 22:02:34.478,1.600674,1.724678,1.734803,1.713677
2020-11-15 22:02:34.495,1.600299,1.716552,1.733803,1.714177
2020-11-15 22:02:34.512,1.599549,1.718802,1.727303,1.714427
2020-11-15 22:02:34.529,1.599799,1.719552,1.727053,1.713927
2020-11-15 22:02:34.546,1.599799,1.724053,1.727803,1.712677
2020-11-15 22:02:34.563,1.599174,1.728428,1.730303,1.713177
2020-11-15 22:02:34.581,1.599924,1.725428,1.740803,1.712802
2020-11-15 22:02:34.598,1.600299,1.723803,1.734803,1.713552
2020-11-15 22:02:34.615,1.599549,1.714927,1.734053,1.714177
2020-11-15 22:02:34.632,1.599174,1.718427,1.725053,1.714177
2020-11-15 22:02:34.649,1.600549,1.721553,1.727678,1.713802
2020-11-15 22:02:34.666,1.599549,1.729678,1.728053,1.713177
2020-11-15 22:02:34.683,1.599924,1.726303,1.731303,1.713302
2020-11-15 22:02:34.700,1.600674,1.725928,1.739928,1.713427
2020-11-15 22:02:34.717,1.599924,1.719427,1.733678,1.715052
2020-11-15 22:02:34.734,1.598924,1.718052,1.732928,1.713927
2020-11-15 22:02:34.751,1.599049,1.719927,1.724553,1.714052
2020-11-15 22:02:34.768,1.599674,1.721678,1.727178,1.713927
2020-11-15 22:02:34.785,1.598299,1.730553,1.727553,1.713552
2020-11-15 22:02:34.802,1.598924,1.726803,1.737928,1.713177
2020-11-15 22:02:34.819,1.600049,1.725928,1.735178,1.713427
2020-11-15 22:02:34.836,1.599674,1.717427,1.733928,1.714677
2020-11-15 22:02:34.853,1.599424,1.719177,1.730178,1.714177
2020-11-15 22:02:34.870,1.600674,1.720302,1.724928,1.714177
2020-11-15 22:02:34.887,1.600174,1.722428,1.728303,1.713302
2020-11-15 22:02:34.904,1.599674,1.731303,1.729678,1.712927
2020-11-15 22:02:34.921,1.600424,1.725928,1.739053,1.712427
2020-11-15 22:02:34.938,1.599424,1.722553,1.734678,1.714802
2020-11-15 22:02:34.955,1.599049,1.714052,1.734303,1.714677
2020-11-15 22:02:34.972,1.599424,1.720177,1.727428,1.714427
2020-11-15 22:02:34.989,1.600924,1.720803,1.726178,1.713552
2020-11-15 22:02:35.006,1.600924,1.729303,1.727803,1.713927
2020-11-15 22:02:35.023,1.600049,1.726428,1.730553,1.713052
2020-11-15 22:02:35.040,1.599799,1.725928,1.740178,1.713927
2020-11-15 22:02:35.057,1.601049,1.721803,1.734303,1.713927
2020-11-15 22:02:35.076,1.600049,1.715927,1.734303,1.714802
2020-11-15 22:02:35.093,1.600049,1.719427,1.730928,1.714052
2020-11-15 22:02:35.110,1.599924,1.719802,1.722303,1.714177
2020-11-15 22:02:35.127,1.599174,1.725178,1.727553,1.712552
2020-11-15 22:02:35.144,1.599799,1.726928,1.728428,1.714177
2020-11-15 22:02:35.161,1.599799,1.726303,1.737428,1.713427
2020-11-15 22:02:35.178,1.599924,1.723803,1.734553,1.714427
2020-11-15 22:02:35.195,1.599174,1.714677,1.733928,1.715052
2020-11-15 22:02:35.212,1.599299,1.719302,1.728928,1.714302
2020-11-15 22:02:35.229,1.599799,1.720302,1.727428,1.713302
2020-11-15 22:02:35.246,1.599174,1.728178,1.728178,1.713052
2020-11-15 22:02:35.263,1.599299,1.726678,1.732928,1.713802
2020-11-15 22:02:35.280,1.600299,1.726053,1.738053,1.713302
2020-11-15 22:02:35.297,1.599424,1.723178,1.734303,1.714427
2020-11-15 22:02:35.314,1.599924,1.714302,1.732803,1.714177
2020-11-15 22:02:35.331,1.599049,1.719677,1.723678,1.714427
2020-11-15 22:02:35.348,1.600674,1.720302,1.727928,1.713677
2020-11-15 22:02:35.365,1.600299,1.728678,1.727678,1.712802
2020-11-15 22:02:35.382,1.599549,1.726053,1.734928,1.713052
2020-11-15 22:02:35.399,1.600424,1.725553,1.736303,1.714052
2020-11-15 22:02:35.416,1.599549,1.717927,1.734553,1.715177
2020-11-15 22:02:35.433,1.598799,1.718677,1.732178,1.714427
2020-11-15 22:02:35.450,1.600424,1.720302,1.722303,1.714052
2020-11-15 22:02:35.468,1.600174,1.720803,1.727803,1.713052
2020-11-15 22:02:35.485,1.599924,1.730053,1.728928,1.713552
2020-11-15 22:02:35.502,1.599174,1.726178,1.737178,1.713302
2020-11-15 22:02:35.519,1.600424,1.725053,1.735053,1.714427
2020-11-15 22:02:35.536,1.600174,1.716052,1.734428,1.715552
2020-11-15 22:02:35.553,1.599924,1.719927,1.731928,1.714552
2020-11-15 22:02:35.570,1.599799,1.719927,1.721803,1.713927
2020-11-15 22:02:35.587,1.598799,1.726053,1.727928,1.713552
2020-11-15 22:02:35.604,1.599049,1.727928,1.728053,1.713677
2020-11-15 22:02:35.621,1.599799,1.726428,1.736928,1.713302
2020-11-15 22:02:35.638,1.600299,1.723928,1.734053,1.714552
2020-11-15 22:02:35.655,1.600674,1.715302,1.733428,1.714302
2020-11-15 22:02:35.672,1.600549,1.719552,1.724803,1.714052
2020-11-15 22:02:35.689,1.600799,1.719927,1.727303,1.713927
2020-11-15 22:02:35.706,1.599799,1.727428,1.727678,1.712552
2020-11-15 22:02:35.723,1.600049,1.726553,1.732553,1.712927
2020-11-15 22:02:35.740,1.600424,1.726178,1.738053,1.713552
2020-11-15 22:02:35.757,1.599049,1.722928,1.734428,1.714427
2020-11-15 22:02:35.774,1.599424,1.713052,1.732803,1.713802
2020-11-15 22:02:35.791,1.599799,1.719302,1.724053,1.713552
2020-11-15 22:02:35.808,1.599174,1.719927,1.727928,1.713052
2020-11-15 22:02:35.826,1.599799,1.728178,1.727553,1.713427
2020-11-15 22:02:35.843,1.599424,1.726053,1.733928,1.713427
2020-11-15 22:02:35.860,1.600799,1.725678,1.736428,1.713927
2020-11-15 22:02:35.877,1.600174,1.716927,1.734553,1.715177
2020-11-15 22:02:35.894,1.599674,1.714802,1.733678,1.713552
2020-11-15 22:02:35.912,1.599549,1.719302,1.725428,1.714552
2020-11-15 22:02:35.929,1.600799,1.720928,1.727178,1.713802
2020-11-15 22:02:35.946,1.600299,1.729928,1.728178,1.712802
2020-11-15 22:02:35.963,1.598799,1.727178,1.730678,1.713302
2020-11-15 22:02:35.980,1.600174,1.726303,1.739428,1.713802
2020-11-15 22:02:35.997,1.599924,1.720302,1.733928,1.714802
2020-11-15 22:02:36.014,1.599049,1.717427,1.733428,1.714677
2020-11-15 22:02:36.031,1.599799,1.719177,1.722303,1.714177
2020-11-15 22:02:36.048,1.599174,1.721928,1.728053,1.713302
2020-11-15 22:02:36.065,1.599674,1.730428,1.729178,1.713552
2020-11-15 22:02:36.082,1.600049,1.725803,1.737928,1.713552
2020-11-15 22:02:36.099,1.600299,1.725803,1.734428,1.713427
2020-11-15 22:02:36.116,1.598799,1.718302,1.734053,1.714302
2020-11-15 22:02:36.133,1.600049,1.719302,1.729928,1.714052
2020-11-15 22:02:36.150,1.599799,1.718677,1.724178,1.713802
2020-11-15 22:02:36.167,1.599799,1.721553,1.728053,1.713052
2020-11-15 22:02:36.184,1.599674,1.726303,1.729803,1.713677
2020-11-15 22:02:36.201,1.599424,1.725928,1.738803,1.713677
2020-11-15 22:02:36.218,1.600049,1.723553,1.734678,1.714302
2020-11-15 22:02:36.235,1.599549,1.714552,1.734053,1.714552
2020-11-15 22:02:36.252,1.599549,1.719052,1.727678,1.714427
2020-11-15 22:02:36.269,1.599674,1.720177,1.725428,1.713677
2020-11-15 22:02:36.286,1.599174,1.728428,1.727553,1.713052
2020-11-15 22:02:36.303,1.598674,1.726803,1.729178,1.713302
2020-11-15 22:02:36.321,1.600174,1.726678,1.739178,1.713552
2020-11-15 22:02:36.338,1.599549,1.722553,1.733803,1.714552
2020-11-15 22:02:36.355,1.598924,1.715177,1.732178,1.714802
2020-11-15 22:02:36.372,1.599674,1.718802,1.721928,1.714302
2020-11-15 22:02:36.389,1.599674,1.721178,1.727428,1.713677
2020-11-15 22:02:36.406,1.599049,1.729303,1.728678,1.713177
2020-11-15 22:02:36.423,1.598799,1.725803,1.736678,1.713302
2020-11-15 22:02:36.440,1.600049,1.725428,1.735053,1.713427
2020-11-15 22:02:36.457,1.599674,1.720302,1.734428,1.714927
2020-11-15 22:02:36.474,1.599424,1.716302,1.731678,1.714052
2020-11-15 22:02:36.491,1.599049,1.718802,1.722553,1.714677
2020-11-15 22:02:36.508,1.599674,1.721178,1.728303,1.713427
2020-11-15 22:02:36.525,1.599299,1.728803,1.728428,1.713177
2020-11-15 22:02:36.542,1.599799,1.726428,1.737553,1.713302
2020-11-15 22:02:36.559,1.599799,1.723928,1.734928,1.714677
2020-11-15 22:02:36.576,1.599549,1.714302,1.734053,1.714302
2020-11-15 22:02:36.593,1.600174,1.718927,1.730053,1.714552
2020-11-15 22:02:36.610,1.599674,1.719802,1.723303,1.714052
2020-11-15 22:02:36.627,1.598924,1.726428,1.727553,1.712802
2020-11-15 22:02:36.644,1.599174,1.726428,1.729428,1.714552
2020-11-15 22:02:36.661,1.599424,1.726178,1.737678,1.713427
2020-11-15 22:02:36.678,1.599549,1.723178,1.733428,1.714677
2020-11-15 22:02:36.695,1.599924,1.714177,1.733053,1.714427
2020-11-15 22:02:36.712,1.599424,1.718927,1.723928,1.713052
2020-11-15 22:02:36.730,1.600299,1.719552,1.725553,1.714427
2020-11-15 22:02:36.748,1.598924,1.722928,1.727803,1.712802
2020-11-15 22:02:36.765,1.599549,1.730178,1.729928,1.713677
2020-11-15 22:02:36.782,1.599799,1.725553,1.739303,1.713552
2020-11-15 22:02:36.799,1.600424,1.724678,1.734428,1.713552
2020-11-15 22:02:36.816,1.599924,1.716302,1.734428,1.714677
2020-11-15 22:02:36.833,1.599549,1.718552,1.726928,1.713677
2020-11-15 22:02:36.850,1.600049,1.719302,1.727553,1.714177
2020-11-15 22:02:36.867,1.599674,1.729553,1.728428,1.713427
2020-11-15 22:02:36.884,1.599174,1.726553,1.730803,1.714177
2020-11-15 22:02:36.901,1.600424,1.726678,1.740178,1.713677
2020-11-15 22:02:36.918,1.600424,1.720803,1.734803,1.715052
2020-11-15 22:02:36.935,1.599799,1.716427,1.733053,1.714427
2020-11-15 22:02:36.952,1.599299,1.719552,1.724553,1.714552
2020-11-15 22:02:36.969,1.600049,1.721803,1.727553,1.713177
2020-11-15 22:02:36.986,1.599924,1.730303,1.727928,1.713427
2020-11-15 22:02:37.003,1.599424,1.726553,1.731428,1.713302
2020-11-15 22:02:37.020,1.599549,1.725803,1.738928,1.714427
2020-11-15 22:02:37.037,1.599549,1.719427,1.734678,1.715052
2020-11-15 22:02:37.054,1.598924,1.718552,1.730678,1.714302
2020-11-15 22:02:37.071,1.599924,1.719677,1.723178,1.713927
2020-11-15 22:02:37.088,1.600049,1.722053,1.728678,1.713052
2020-11-15 22:02:37.105,1.599049,1.731303,1.729053,1.713052
2020-11-15 22:02:37.122,1.600299,1.726053,1.738303,1.713177
2020-11-15 22:02:37.139,1.599299,1.725178,1.735178,1.713802
2020-11-15 22:02:37.156,1.599299,1.717302,1.735053,1.714677
2020-11-15 22:02:37.173,1.599049,1.718427,1.729053,1.714427
2020-11-15 22:02:37.190,1.599674,1.719927,1.725553,1.713802
2020-11-15 22:02:37.207,1.600299,1.728928,1.727303,1.712802
2020-11-15 22:02:37.224,1.598674,1.725928,1.729928,1.713302
2020-11-15 22:02:37.241,1.599299,1.725928,1.739803,1.714177
2020-11-15 22:02:37.258,1.600049,1.722928,1.733928,1.714552
2020-11-15 22:02:37.275,1.599424,1.715427,1.733928,1.714302
2020-11-15 22:02:37.292,1.598424,1.719052,1.726428,1.714552
2020-11-15 22:02:37.309,1.599924,1.720553,1.726553,1.713552
2020-11-15 22:02:37.326,1.599549,1.728928,1.727178,1.712927
2020-11-15 22:02:37.343,1.598299,1.726428,1.734303,1.713427
2020-11-15 22:02:37.360,1.599799,1.726178,1.735053,1.714052
2020-11-15 22:02:37.377,1.599174,1.721178,1.734553,1.714802
2020-11-15 22:02:37.394,1.599049,1.715927,1.731803,1.714802
2020-11-15 22:02:37.411,1.599924,1.719177,1.722053,1.713677
2020-11-15 22:02:37.429,1.600049,1.721178,1.728178,1.713427
2020-11-15 22:02:37.446,1.599674,1.730303,1.729053,1.712677
2020-11-15 22:02:37.463,1.599049,1.725803,1.737303,1.712677
2020-11-15 22:02:37.480,1.600174,1.725428,1.735178,1.714802
2020-11-15 22:02:37.497,1.599924,1.715927,1.734178,1.714677
2020-11-15 22:02:37.514,1.599299,1.719177,1.730928,1.714552
2020-11-15 22:02:37.531,1.600424,1.719677,1.723053,1.714302
2020-11-15 22:02:37.548,1.599299,1.721803,1.727178,1.714052
2020-11-15 22:02:37.566,1.599049,1.731428,1.727428,1.713177
2020-11-15 22:02:37.583,1.599549,1.726303,1.732803,1.713177
2020-11-15 22:02:37.600,1.599674,1.725678,1.737053,1.713427
2020-11-15 22:02:37.617,1.599299,1.717302,1.733803,1.715177
2020-11-15 22:02:37.634,1.600049,1.719677,1.731803,1.714552
2020-11-15 22:02:37.651,1.599299,1.719552,1.721803,1.714302
2020-11-15 22:02:37.668,1.599549,1.722928,1.726803,1.713427
2020-11-15 22:02:37.685,1.599299,1.730928,1.729928,1.712927
2020-11-15 22:02:37.702,1.600299,1.726178,1.738428,1.712552
2020-11-15 22:02:37.719,1.599424,1.724678,1.734928,1.713677
2020-11-15 22:02:37.736,1.599924,1.716677,1.734053,1.714677
2020-11-15 22:02:37.753,1.598549,1.718427,1.727428,1.713927
2020-11-15 22:02:37.771,1.599424,1.719552,1.721553,1.713802
2020-11-15 22:02:37.788,1.598799,1.724803,1.727178,1.712802
2020-11-15 22:02:37.805,1.598924,1.729428,1.730928,1.713052
2020-11-15 22:02:37.822,1.600174,1.725678,1.740428,1.713427
2020-11-15 22:02:37.839,1.599299,1.724303,1.734053,1.714177
2020-11-15 22:02:37.856,1.600549,1.716052,1.734428,1.715052
2020-11-15 22:02:37.873,1.599799,1.719302,1.725303,1.713802
2020-11-15 22:02:37.890,1.599924,1.718802,1.727428,1.713302
2020-11-15 22:02:37.907,1.599299,1.725303,1.728178,1.712552
2020-11-15 22:02:37.924,1.599174,1.727178,1.732553,1.713302
2020-11-15 22:02:37.941,1.600799,1.725428,1.739928,1.712927
2020-11-15 22:02:37.958,1.599424,1.723178,1.734053,1.713552
2020-11-15 22:02:37.975,1.599174,1.714177,1.733553,1.713677
2020-11-15 22:02:37.992,1.599174,1.718677,1.724553,1.714552
2020-11-15 22:02:38.009,1.599799,1.721803,1.727303,1.713427
2020-11-15 22:02:38.026,1.598924,1.731428,1.727928,1.713427
2020-11-15 22:02:38.043,1.600299,1.726428,1.732928,1.713802
2020-11-15 22:02:38.060,1.600049,1.725928,1.738053,1.714177
2020-11-15 22:02:38.077,1.599549,1.717677,1.734428,1.714677
2020-11-15 22:02:38.094,1.598799,1.719302,1.732303,1.714052
2020-11-15 22:02:38.111,1.598299,1.719177,1.722178,1.713677
2020-11-15 22:02:38.129,1.599674,1.722428,1.727303,1.713677
2020-11-15 22:02:38.146,1.599174,1.731428,1.727428,1.713427
2020-11-15 22:02:38.163,1.598549,1.726553,1.734678,1.713302
2020-11-15 22:02:38.180,1.599424,1.725303,1.734428,1.714302
2020-11-15 22:02:38.197,1.599174,1.716052,1.733553,1.715177
2020-11-15 22:02:38.214,1.598799,1.718427,1.730928,1.713677
2020-11-15 22:02:38.231,1.599799,1.719677,1.726803,1.713802
2020-11-15 22:02:38.248,1.599049,1.723428,1.728178,1.713552
2020-11-15 22:02:38.265,1.598799,1.728678,1.730928,1.713302
2020-11-15 22:02:38.282,1.600049,1.725428,1.740178,1.713552
2020-11-15 22:02:38.299,1.599424,1.723428,1.733928,1.714302
2020-11-15 22:02:38.316,1.599799,1.715677,1.733678,1.714177
2020-11-15 22:02:38.333,1.598549,1.718552,1.725303,1.713927
2020-11-15 22:02:38.350,1.599424,1.718927,1.727553,1.713427
2020-11-15 22:02:38.367,1.598674,1.725053,1.727678,1.712302
2020-11-15 22:02:38.385,1.599299,1.730428,1.728803,1.712802
2020-11-15 22:02:38.403,1.599174,1.725553,1.738053,1.713427
2020-11-15 22:02:38.420,1.599924,1.724803,1.735678,1.712927
2020-11-15 22:02:38.437,1.598674,1.716927,1.734678,1.714427
2020-11-15 22:02:38.454,1.599674,1.717802,1.729053,1.713677
2020-11-15 22:02:38.471,1.600174,1.720177,1.724553,1.714302
2020-11-15 22:02:38.488,1.599549,1.727678,1.728178,1.713552
2020-11-15 22:02:38.505,1.599549,1.726553,1.729678,1.713427
2020-11-15 22:02:38.522,1.599799,1.725553,1.738428,1.713552
2020-11-15 22:02:38.539,1.598799,1.723178,1.734428,1.714677
2020-11-15 22:02:38.556,1.600549,1.714052,1.734428,1.714302
2020-11-15 22:02:38.573,1.598049,1.719677,1.726928,1.714177
2020-11-15 22:02:38.590,1.600049,1.720803,1.726303,1.714177
2020-11-15 22:02:38.607,1.599299,1.728928,1.726803,1.713177
2020-11-15 22:02:38.624,1.598424,1.726553,1.735053,1.713802
2020-11-15 22:02:38.641,1.599549,1.725678,1.735928,1.713802
2020-11-15 22:02:38.658,1.599799,1.721678,1.734178,1.714677
2020-11-15 22:02:38.675,1.598674,1.715302,1.732053,1.714302
2020-11-15 22:02:38.692,1.598799,1.719427,1.722178,1.714302
2020-11-15 22:02:38.709,1.599424,1.721303,1.727928,1.713302
2020-11-15 22:02:38.726,1.598549,1.729178,1.727053,1.712177
2020-11-15 22:02:38.743,1.599674,1.726553,1.736928,1.712677
2020-11-15 22:02:38.760,1.598924,1.725553,1.734678,1.712802
2020-11-15 22:02:38.777,1.598924,1.719552,1.734178,1.714302
2020-11-15 22:02:38.794,1.599299,1.717302,1.730928,1.713802
2020-11-15 22:02:38.811,1.600049,1.719302,1.722928,1.714427
2020-11-15 22:02:38.828,1.598549,1.726303,1.727928,1.713427
2020-11-15 22:02:38.845,1.599049,1.727553,1.728678,1.712802
2020-11-15 22:02:38.862,1.598799,1.725428,1.737553,1.712802
2020-11-15 22:02:38.879,1.599799,1.722928,1.734303,1.714052
2020-11-15 22:02:38.896,1.599674,1.714802,1.734053,1.714677
2020-11-15 22:02:38.913,1.599799,1.719552,1.728928,1.714552
2020-11-15 22:02:38.930,1.599424,1.719552,1.723928,1.714052
2020-11-15 22:02:38.948,1.598924,1.727553,1.727303,1.712677
2020-11-15 22:02:38.965,1.599174,1.726553,1.729803,1.713677
2020-11-15 22:02:38.981,1.598299,1.725178,1.738678,1.714052
2020-11-15 22:02:38.999,1.599299,1.722803,1.733928,1.714802
2020-11-15 22:02:39.016,1.598799,1.713927,1.733678,1.714052
2020-11-15 22:02:39.033,1.598174,1.719802,1.727053,1.714052
2020-11-15 22:02:39.050,1.599799,1.720553,1.726303,1.714427
2020-11-15 22:02:39.067,1.597799,1.728428,1.727178,1.713427
2020-11-15 22:02:39.084,1.598674,1.726303,1.734553,1.713552
2020-11-15 22:02:39.101,1.600049,1.725678,1.735678,1.713677
2020-11-15 22:02:39.118,1.599299,1.721928,1.733928,1.714052
2020-11-15 22:02:39.135,1.598799,1.715427,1.731178,1.714052
2020-11-15 22:02:39.152,1.599549,1.719552,1.722303,1.712927
2020-11-15 22:02:39.169,1.599174,1.721178,1.728053,1.713302
2020-11-15 22:02:39.186,1.599299,1.729053,1.727928,1.712927
2020-11-15 22:02:39.203,1.599174,1.726803,1.730928,1.713677
2020-11-15 22:02:39.222,1.599549,1.725678,1.739678,1.712802
2020-11-15 22:02:39.239,1.599424,1.723428,1.734053,1.714302
2020-11-15 22:02:39.256,1.598174,1.714552,1.733303,1.714177
2020-11-15 22:02:39.273,1.598924,1.718677,1.725178,1.713677
2020-11-15 22:02:39.290,1.600424,1.719552,1.727178,1.713802
2020-11-15 22:02:39.307,1.599174,1.731303,1.728178,1.713927
2020-11-15 22:02:39.324,1.598924,1.726428,1.732553,1.713927
2020-11-15 22:02:39.341,1.601174,1.725303,1.737928,1.713177
2020-11-15 22:02:39.358,1.599049,1.718427,1.734053,1.714927
2020-11-15 22:02:39.375,1.599174,1.719552,1.732553,1.714052
2020-11-15 22:02:39.392,1.599674,1.720052,1.723303,1.714177
2020-11-15 22:02:39.409,1.598299,1.722303,1.726553,1.713677
2020-11-15 22:02:39.426,1.598674,1.731053,1.728178,1.713302
2020-11-15 22:02:39.443,1.598299,1.726178,1.733803,1.712802
2020-11-15 22:02:39.460,1.599799,1.725178,1.734928,1.713552
2020-11-15 22:02:39.477,1.599924,1.716302,1.733553,1.715302
2020-11-15 22:02:39.494,1.598924,1.718552,1.727928,1.713927
2020-11-15 22:02:39.511,1.600674,1.719427,1.726428,1.714302
2020-11-15 22:02:39.528,1.598424,1.723053,1.727428,1.713177
2020-11-15 22:02:39.545,1.599174,1.729928,1.730178,1.712927
2020-11-15 22:02:39.562,1.599049,1.725428,1.739803,1.713427
2020-11-15 22:02:39.579,1.599799,1.724428,1.734678,1.713927
2020-11-15 22:02:39.596,1.599799,1.715427,1.733928,1.714927
2020-11-15 22:02:39.613,1.598549,1.718802,1.726303,1.713802
2020-11-15 22:02:39.631,1.600674,1.718677,1.727053,1.713552
2020-11-15 22:02:39.648,1.599799,1.724928,1.728053,1.712552
2020-11-15 22:02:39.665,1.600299,1.727928,1.730678,1.712552
2020-11-15 22:02:39.682,1.599924,1.725303,1.740178,1.713052
2020-11-15 22:02:39.699,1.599924,1.723428,1.734553,1.713802
2020-11-15 22:02:39.716,1.599424,1.713927,1.733053,1.714552
2020-11-15 22:02:39.733,1.599674,1.719427,1.724178,1.714177
2020-11-15 22:02:39.750,1.600674,1.722053,1.726428,1.713677
2020-11-15 22:02:39.767,1.598924,1.730053,1.728303,1.713552
2020-11-15 22:02:39.784,1.600424,1.726678,1.732053,1.713302
2020-11-15 22:02:39.801,1.600549,1.726303,1.738678,1.714052
2020-11-15 22:02:39.818,1.599424,1.719052,1.733928,1.715552
2020-11-15 22:02:39.835,1.600049,1.719177,1.732178,1.713677
2020-11-15 22:02:39.852,1.598674,1.719302,1.724928,1.714427
2020-11-15 22:02:39.869,1.598049,1.722178,1.726428,1.713677
2020-11-15 22:02:39.886,1.598924,1.731428,1.727053,1.713552
2020-11-15 22:02:39.903,1.599049,1.725928,1.733928,1.713177
2020-11-15 22:02:39.920,1.600049,1.725303,1.734553,1.714177
2020-11-15 22:02:39.937,1.599799,1.716927,1.734428,1.715052
2020-11-15 22:02:39.954,1.599924,1.719302,1.728803,1.714177
2020-11-15 22:02:39.971,1.598924,1.719427,1.726178,1.713677
2020-11-15 22:02:39.989,1.599174,1.722803,1.727678,1.713052
2020-11-15 22:02:40.006,1.599174,1.729803,1.730053,1.713177
2020-11-15 22:02:40.023,1.600424,1.725803,1.739928,1.712802
2020-11-15 22:02:40.041,1.599549,1.725678,1.734303,1.713177
2020-11-15 22:02:40.058,1.598924,1.720177,1.734928,1.714177
2020-11-15 22:02:40.075,1.599174,1.717427,1.732553,1.713927
2020-11-15 22:02:40.092,1.599174,1.719927,1.723178,1.714552
2020-11-15 22:02:40.109,1.599424,1.722053,1.727803,1.713427
2020-11-15 22:02:40.126,1.599424,1.730678,1.728303,1.713052
2020-11-15 22:02:40.143,1.599174,1.725803,1.737803,1.713427
2020-11-15 22:02:40.160,1.600674,1.725553,1.735053,1.713427
2020-11-15 22:02:40.178,1.599424,1.718927,1.734053,1.714427
2020-11-15 22:02:40.195,1.599549,1.719677,1.730178,1.714177
2020-11-15 22:02:40.212,1.600049,1.719427,1.723803,1.713927
2020-11-15 22:02:40.229,1.599299,1.720928,1.728303,1.712552
2020-11-15 22:02:40.246,1.599174,1.731553,1.728928,1.712427
2020-11-15 22:02:40.263,1.599299,1.725053,1.738053,1.712052
2020-11-15 22:02:40.280,1.599674,1.725178,1.734928,1.714427
2020-11-15 22:02:40.297,1.598924,1.714552,1.734178,1.714302
2020-11-15 22:02:40.314,1.599674,1.719427,1.728428,1.713927
2020-11-15 22:02:40.331,1.600799,1.719552,1.725803,1.713927
2020-11-15 22:02:40.348,1.597799,1.727803,1.727053,1.712427
2020-11-15 22:02:40.365,1.598674,1.726553,1.729053,1.712802
2020-11-15 22:02:40.382,1.599549,1.725303,1.739053,1.713177
2020-11-15 22:02:40.399,1.599549,1.722178,1.733803,1.714427
2020-11-15 22:02:40.416,1.599549,1.714927,1.733553,1.714427
2020-11-15 22:02:40.433,1.598924,1.719302,1.725678,1.713427
2020-11-15 22:02:40.450,1.599549,1.720302,1.727553,1.713552
2020-11-15 22:02:40.467,1.599799,1.728928,1.727303,1.712177
2020-11-15 22:02:40.484,1.600299,1.726053,1.735678,1.713052
2020-11-15 22:02:40.501,1.600549,1.725803,1.734803,1.712802
2020-11-15 22:02:40.518,1.599674,1.719927,1.733678,1.714302
2020-11-15 22:02:40.535,1.599299,1.715177,1.731053,1.713552
2020-11-15 22:02:40.552,1.599799,1.718552,1.722678,1.713177
2020-11-15 22:02:40.569,1.598424,1.720803,1.727928,1.712927
2020-11-15 22:02:40.586,1.599549,1.728678,1.728303,1.713427
2020-11-15 22:02:40.603,1.599424,1.726178,1.736803,1.713302
2020-11-15 22:02:40.620,1.600299,1.723803,1.734803,1.713302
2020-11-15 22:02:40.637,1.599924,1.714052,1.734303,1.714427
2020-11-15 22:02:40.654,1.599424,1.719427,1.729928,1.713927
2020-11-15 22:02:40.671,1.600424,1.718927,1.722803,1.713177
2020-11-15 22:02:40.688,1.599049,1.725678,1.727553,1.712677
2020-11-15 22:02:40.705,1.598924,1.726553,1.728678,1.713177
2020-11-15 22:02:40.722,1.599674,1.726053,1.737303,1.713427
2020-11-15 22:02:40.739,1.599799,1.723303,1.734428,1.714177
2020-11-15 22:02:40.757,1.599424,1.714052,1.733553,1.714052
2020-11-15 22:02:40.774,1.598174,1.719552,1.727178,1.713802
2020-11-15 22:02:40.791,1.599174,1.719802,1.727178,1.713802
2020-11-15 22:02:40.808,1.599549,1.727553,1.727303,1.712802
2020-11-15 22:02:40.825,1.599049,1.725803,1.732803,1.713302
2020-11-15 22:02:40.842,1.599674,1.725303,1.736928,1.713052
2020-11-15 22:02:40.859,1.599174,1.723553,1.734428,1.713552
2020-11-15 22:02:40.877,1.598924,1.716177,1.733803,1.713927
2020-11-15 22:02:40.894,1.599299,1.718552,1.726553,1.713927
2020-11-15 22:02:40.911,1.600424,1.718802,1.726928,1.712677
2020-11-15 22:02:40.928,1.598674,1.723803,1.727803,1.711677
2020-11-15 22:02:40.945,1.599174,1.728303,1.730303,1.713302
2020-11-15 22:02:40.962,1.599799,1.725678,1.739553,1.713677
2020-11-15 22:02:40.979,1.599424,1.723178,1.733428,1.714802
2020-11-15 22:02:40.996,1.599299,1.716302,1.733553,1.713802
2020-11-15 22:02:41.013,1.599049,1.719552,1.725178,1.713552
2020-11-15 22:02:41.030,1.600674,1.720928,1.727053,1.713177
2020-11-15 22:02:41.047,1.599299,1.730178,1.727053,1.712552
2020-11-15 22:02:41.064,1.599049,1.726303,1.731553,1.713677
2020-11-15 22:02:41.081,1.600049,1.725678,1.738553,1.713552
2020-11-15 22:02:41.099,1.598549,1.719177,1.733428,1.714677
2020-11-15 22:02:41.116,1.598174,1.718302,1.732053,1.713677
2020-11-15 22:02:41.133,1.599049,1.719177,1.722928,1.713802
2020-11-15 22:02:41.150,1.600049,1.722053,1.726553,1.713052
2020-11-15 22:02:41.167,1.599174,1.731053,1.728553,1.712427
2020-11-15 22:02:41.184,1.599424,1.725928,1.737553,1.713177
2020-11-15 22:02:41.201,1.600049,1.725303,1.734678,1.713302
2020-11-15 22:02:41.218,1.599424,1.716927,1.733803,1.714802
2020-11-15 22:02:41.235,1.598924,1.718927,1.728553,1.713927
2020-11-15 22:02:41.252,1.599924,1.718302,1.724178,1.713552
2020-11-15 22:02:41.269,1.598924,1.721678,1.727803,1.712677
2020-11-15 22:02:41.286,1.599174,1.730803,1.729553,1.712427
2020-11-15 22:02:41.303,1.599174,1.725303,1.739178,1.712302
2020-11-15 22:02:41.320,1.599549,1.723803,1.734178,1.714677
2020-11-15 22:02:41.337,1.598674,1.713427,1.734178,1.714302
2020-11-15 22:02:41.354,1.599174,1.718927,1.727553,1.714302
2020-11-15 22:02:41.371,1.599799,1.719927,1.727303,1.713177
2020-11-15 22:02:41.388,1.598924,1.728053,1.727803,1.712302
2020-11-15 22:02:41.405,1.599549,1.725803,1.729928,1.712802
2020-11-15 22:02:41.422,1.598924,1.725428,1.739303,1.712927
2020-11-15 22:02:41.439,1.599299,1.720553,1.733803,1.714927
2020-11-15 22:02:41.456,1.598799,1.715677,1.732178,1.713802
2020-11-15 22:02:41.473,1.598799,1.719427,1.721678,1.714552
2020-11-15 22:02:41.490,1.599799,1.721053,1.727553,1.712927
2020-11-15 22:02:41.507,1.598424,1.729178,1.728178,1.712802
2020-11-15 22:02:41.524,1.599799,1.726053,1.736428,1.712802
2020-11-15 22:02:41.541,1.599174,1.725428,1.734178,1.712927
2020-11-15 22:02:41.558,1.599049,1.718927,1.733553,1.714177
2020-11-15 22:02:41.575,1.599049,1.717927,1.730553,1.713427
2020-11-15 22:02:41.592,1.599924,1.718927,1.721928,1.713177
2020-11-15 22:02:41.609,1.599424,1.720928,1.727428,1.711302
2020-11-15 22:02:41.626,1.599674,1.729303,1.728553,1.712927
2020-11-15 22:02:41.643,1.599174,1.726178,1.737803,1.712302
2020-11-15 22:02:41.660,1.599174,1.724428,1.734553,1.712802
2020-11-15 22:02:41.677,1.598799,1.716677,1.733428,1.713552
2020-11-15 22:02:41.696,1.599424,1.713677,1.732428,1.713552
2020-11-15 22:02:41.713,1.599049,1.718677,1.721928,1.713552
2020-11-15 22:02:41.730,1.599174,1.719677,1.727553,1.712802
2020-11-15 22:02:41.747,1.599799,1.727553,1.727178,1.712802
2020-11-15 22:02:41.764,1.598674,1.724928,1.733803,1.713052
2020-11-15 22:02:41.781,1.599674,1.724303,1.734428,1.713302
2020-11-15 22:02:41.798,1.598924,1.715927,1.733303,1.714802
2020-11-15 22:02:41.815,1.599049,1.719177,1.731553,1.713677
2020-11-15 22:02:41.832,1.598924,1.719552,1.721803,1.713802
2020-11-15 22:02:41.849,1.600174,1.723928,1.727178,1.712927
2020-11-15 22:02:41.866,1.599049,1.729428,1.727428,1.713177
2020-11-15 22:02:41.883,1.599674,1.725303,1.735553,1.713052
2020-11-15 22:02:41.900,1.599174,1.723678,1.733428,1.713927
2020-11-15 22:02:41.917,1.597924,1.715552,1.734178,1.714427
2020-11-15 22:02:41.934,1.599174,1.718552,1.725553,1.714177
2020-11-15 22:02:41.951,1.600549,1.719302,1.727178,1.713552
2020-11-15 22:02:41.968,1.598424,1.725303,1.727428,1.712052
2020-11-15 22:02:41.985,1.599424,1.727053,1.730678,1.712427
2020-11-15 22:02:42.002,1.599424,1.725178,1.739178,1.712677
2020-11-15 22:02:42.020,1.598674,1.722428,1.734178,1.713552
2020-11-15 22:02:42.037,1.598924,1.713802,1.732678,1.713427
2020-11-15 22:02:42.054,1.598174,1.718177,1.724303,1.713427
2020-11-15 22:02:42.071,1.598924,1.718427,1.726678,1.712552
2020-11-15 22:02:42.088,1.600174,1.726803,1.727803,1.711927
2020-11-15 22:02:42.105,1.599799,1.725178,1.732178,1.712927
2020-11-15 22:02:42.122,1.599674,1.724803,1.737428,1.713677
2020-11-15 22:02:42.139,1.599424,1.718427,1.734178,1.714677
2020-11-15 22:02:42.156,1.599674,1.719052,1.731928,1.714177
2020-11-15 22:02:42.173,1.598799,1.718927,1.723053,1.713427
2020-11-15 22:02:42.190,1.599799,1.721678,1.726803,1.712302
2020-11-15 22:02:42.207,1.599049,1.730428,1.727803,1.712802
2020-11-15 22:02:42.224,1.599424,1.725303,1.734178,1.713052
2020-11-15 22:02:42.241,1.600424,1.724553,1.734803,1.712552
2020-11-15 22:02:42.258,1.599299,1.715927,1.732553,1.713802
2020-11-15 22:02:42.275,1.598549,1.718677,1.730553,1.713552
2020-11-15 22:02:42.292,1.599299,1.719052,1.721178,1.712802
2020-11-15 22:02:42.309,1.599174,1.723178,1.727428,1.712677
2020-11-15 22:02:42.326,1.599299,1.729178,1.729928,1.712552
2020-11-15 22:02:42.343,1.600049,1.725553,1.739178,1.712427
2020-11-15 22:02:42.360,1.600049,1.723803,1.734053,1.713802
2020-11-15 22:02:42.378,1.599299,1.715052,1.733428,1.714677
2020-11-15 22:02:42.395,1.598549,1.718677,1.731178,1.714302
2020-11-15 22:02:42.412,1.599049,1.719052,1.722053,1.713677
2020-11-15 22:02:42.429,1.599299,1.724553,1.726553,1.712802
2020-11-15 22:02:42.446,1.599799,1.727803,1.727678,1.713302
2020-11-15 22:02:42.463,1.599549,1.725303,1.736678,1.712552
2020-11-15 22:02:42.480,1.598924,1.723303,1.733803,1.713677
2020-11-15 22:02:42.497,1.599924,1.714802,1.733178,1.714052
2020-11-15 22:02:42.514,1.599674,1.718177,1.729303,1.713802
2020-11-15 22:02:42.533,1.599424,1.719552,1.723928,1.713927
2020-11-15 22:02:42.550,1.600049,1.721803,1.727553,1.713052
2020-11-15 22:02:42.567,1.598674,1.730803,1.729428,1.712552
2020-11-15 22:02:42.584,1.599674,1.725178,1.738428,1.712927
2020-11-15 22:02:42.601,1.600549,1.724553,1.734303,1.713177
2020-11-15 22:02:42.618,1.598924,1.715302,1.734553,1.714302
2020-11-15 22:02:42.635,1.599674,1.718427,1.728053,1.713302
2020-11-15 22:02:42.652,1.599299,1.719302,1.726303,1.712927
2020-11-15 22:02:42.669,1.599299,1.721928,1.727303,1.712177
2020-11-15 22:02:42.686,1.599424,1.726053,1.729428,1.713177
2020-11-15 22:02:42.703,1.600674,1.725803,1.740303,1.713552
2020-11-15 22:02:42.720,1.600924,1.721428,1.733678,1.714552
2020-11-15 22:02:42.737,1.598799,1.715052,1.733053,1.714052
2020-11-15 22:02:42.754,1.599549,1.719802,1.725553,1.714052
2020-11-15 22:02:42.771,1.599924,1.720428,1.726678,1.713427
2020-11-15 22:02:42.788,1.599674,1.729053,1.727178,1.712552
2020-11-15 22:02:42.805,1.598674,1.725928,1.730303,1.712552
2020-11-15 22:02:42.822,1.600049,1.725553,1.738428,1.712927
2020-11-15 22:02:42.839,1.601174,1.720177,1.733303,1.715302
2020-11-15 22:02:42.856,1.598549,1.716677,1.732553,1.713802
2020-11-15 22:02:42.873,1.598674,1.719427,1.722053,1.713427
2020-11-15 22:02:42.890,1.601549,1.721428,1.727803,1.712802
2020-11-15 22:02:42.907,1.600174,1.730803,1.728303,1.713177
2020-11-15 22:02:42.924,1.598174,1.726178,1.737053,1.713302
2020-11-15 22:02:42.941,1.599424,1.725803,1.735303,1.713302
2020-11-15 22:02:42.958,1.599049,1.718302,1.733553,1.714677
2020-11-15 22:02:42.975,1.599174,1.717927,1.729553,1.713302
2020-11-15 22:02:42.992,1.598799,1.718677,1.723178,1.713927
2020-11-15 22:02:43.009,1.599174,1.721178,1.727678,1.712177
2020-11-15 22:02:43.026,1.599049,1.730553,1.729053,1.712927
2020-11-15 22:02:43.043,1.599674,1.725053,1.738053,1.713052
2020-11-15 22:02:43.060,1.599674,1.724428,1.734553,1.714677
2020-11-15 22:02:43.078,1.599549,1.713427,1.733928,1.714177
2020-11-15 22:02:43.095,1.600049,1.719052,1.727428,1.713927
2020-11-15 22:02:43.112,1.599549,1.719427,1.725053,1.714052
2020-11-15 22:02:43.129,1.599049,1.727803,1.727553,1.712302
2020-11-15 22:02:43.146,1.599674,1.725928,1.729053,1.713302
2020-11-15 22:02:43.163,1.599299,1.725303,1.739053,1.713302
2020-11-15 22:02:43.180,1.599299,1.721803,1.733678,1.714177
2020-11-15 22:02:43.197,1.599424,1.714552,1.733678,1.713927
2020-11-15 22:02:43.214,1.598799,1.718677,1.726553,1.714177
2020-11-15 22:02:43.231,1.600174,1.720553,1.726928,1.713052
2020-11-15 22:02:43.248,1.599174,1.728428,1.727678,1.711927
2020-11-15 22:02:43.265,1.599174,1.725428,1.734803,1.713302
2020-11-15 22:02:43.282,1.600299,1.725428,1.734928,1.713177
2020-11-15 22:02:43.299,1.600424,1.719552,1.734428,1.713927
2020-11-15 22:02:43.316,1.599049,1.715927,1.730928,1.713927
2020-11-15 22:02:43.333,1.599924,1.718677,1.721678,1.712552
2020-11-15 22:02:43.351,1.600049,1.719177,1.726803,1.713177
2020-11-15 22:02:43.368,1.598299,1.725428,1.727303,1.712302
2020-11-15 22:02:43.385,1.599674,1.726053,1.731428,1.712677
2020-11-15 22:02:43.402,1.599674,1.725053,1.738428,1.712677
2020-11-15 22:02:43.419,1.598799,1.722428,1.734303,1.713927
2020-11-15 22:02:43.437,1.599174,1.713177,1.731803,1.712802
2020-11-15 22:02:43.454,1.598799,1.718302,1.723803,1.713927
2020-11-15 22:02:43.471,1.599299,1.722178,1.726178,1.713052
2020-11-15 22:02:43.488,1.598799,1.731303,1.726803,1.713427
2020-11-15 22:02:43.505,1.598924,1.726178,1.733178,1.713552
2020-11-15 22:02:43.522,1.599924,1.724928,1.735803,1.713177
2020-11-15 22:02:43.539,1.599424,1.716927,1.733178,1.714802
2020-11-15 22:02:43.556,1.598924,1.718552,1.731428,1.713302
2020-11-15 22:02:43.573,1.598424,1.719052,1.721803,1.713427
2020-11-15 22:02:43.590,1.598674,1.723053,1.726678,1.712802
2020-11-15 22:02:43.607,1.598674,1.730303,1.726803,1.713052
2020-11-15 22:02:43.624,1.598299,1.725553,1.734553,1.712927
2020-11-15 22:02:43.641,1.599049,1.724178,1.734053,1.713802
2020-11-15 22:02:43.658,1.599924,1.716052,1.733928,1.714177
2020-11-15 22:02:43.675,1.599174,1.718427,1.726928,1.713302
2020-11-15 22:02:43.692,1.600674,1.719427,1.726928,1.713552
2020-11-15 22:02:43.709,1.598549,1.724178,1.727553,1.712552
2020-11-15 22:02:43.726,1.599174,1.728428,1.730553,1.713052
2020-11-15 22:02:43.743,1.599424,1.724678,1.739803,1.712677
2020-11-15 22:02:43.760,1.598799,1.722928,1.734428,1.713552
2020-11-15 22:02:43.777,1.598424,1.714052,1.733428,1.713552
2020-11-15 22:02:43.794,1.599049,1.718552,1.724178,1.712927
2020-11-15 22:02:43.811,1.600174,1.718177,1.727678,1.713177
2020-11-15 22:02:43.828,1.599299,1.724428,1.727678,1.712052
2020-11-15 22:02:43.845,1.599299,1.726053,1.731053,1.712802
2020-11-15 22:02:43.862,1.600549,1.725303,1.738053,1.713302
2020-11-15 22:02:43.879,1.599424,1.719052,1.733678,1.714177
2020-11-15 22:02:43.896,1.598674,1.717677,1.732053,1.713927
2020-11-15 22:02:43.913,1.598299,1.718677,1.723553,1.713552
2020-11-15 22:02:43.930,1.599549,1.721803,1.726303,1.712177
2020-11-15 22:02:43.948,1.598674,1.730303,1.726678,1.712927
2020-11-15 22:02:43.965,1.598549,1.725178,1.732678,1.713427
2020-11-15 22:02:43.982,1.599299,1.725053,1.736053,1.713052
2020-11-15 22:02:43.999,1.598299,1.716802,1.733803,1.715302
2020-11-15 22:02:44.016,1.598799,1.718302,1.728678,1.713552
2020-11-15 22:02:44.033,1.599549,1.718802,1.724303,1.713677
2020-11-15 22:02:44.050,1.598924,1.722053,1.727678,1.712802
2020-11-15 22:02:44.067,1.600049,1.730428,1.729553,1.712677
2020-11-15 22:02:44.084,1.599424,1.725053,1.738803,1.712802
2020-11-15 22:02:44.101,1.599299,1.723428,1.734303,1.713177
2020-11-15 22:02:44.118,1.598799,1.715802,1.734178,1.713802
2020-11-15 22:02:44.135,1.599924,1.717427,1.727428,1.713302
2020-11-15 22:02:44.152,1.598174,1.718677,1.726803,1.713177
2020-11-15 22:02:44.169,1.599549,1.723178,1.727053,1.713052
2020-11-15 22:02:44.187,1.599049,1.729053,1.727428,1.712427
2020-11-15 22:02:44.204,1.599174,1.725553,1.736553,1.712802
2020-11-15 22:02:44.221,1.598799,1.723803,1.734178,1.713427
2020-11-15 22:02:44.238,1.598799,1.715427,1.733553,1.714427
2020-11-15 22:02:44.255,1.598924,1.718302,1.730053,1.713677
2020-11-15 22:02:44.272,1.599299,1.718802,1.722053,1.713552
2020-11-15 22:02:44.289,1.597924,1.725303,1.726303,1.712302
2020-11-15 22:02:44.306,1.597924,1.726553,1.728178,1.712802
2020-11-15 22:02:44.323,1.598674,1.725303,1.737178,1.712802
2020-11-15 22:02:44.340,1.598799,1.722678,1.733303,1.713802
2020-11-15 22:02:44.357,1.597799,1.713802,1.732553,1.714052
2020-11-15 22:02:44.374,1.599049,1.718927,1.724178,1.713677
2020-11-15 22:02:44.391,1.599299,1.718802,1.726428,1.713427
2020-11-15 22:02:44.409,1.598299,1.727178,1.727303,1.711677
2020-11-15 22:02:44.426,1.598299,1.724928,1.732178,1.712927
2020-11-15 22:02:44.443,1.599299,1.725428,1.737053,1.712052
2020-11-15 22:02:44.460,1.598674,1.721803,1.733553,1.713927
2020-11-15 22:02:44.477,1.598674,1.712927,1.732053,1.713302
2020-11-15 22:02:44.494,1.598299,1.718427,1.722803,1.713552
2020-11-15 22:02:44.511,1.598549,1.722053,1.726928,1.713052
2020-11-15 22:02:44.528,1.598799,1.730803,1.727678,1.712802
2020-11-15 22:02:44.545,1.598549,1.725553,1.734803,1.713302
2020-11-15 22:02:44.562,1.599174,1.724803,1.734678,1.713427
2020-11-15 22:02:44.579,1.598424,1.716302,1.733303,1.714677
2020-11-15 22:02:44.596,1.598424,1.718177,1.731178,1.713052
2020-11-15 22:02:44.613,1.598799,1.719177,1.721178,1.713927
2020-11-15 22:02:44.630,1.598049,1.722678,1.726803,1.712427
2020-11-15 22:02:44.647,1.597799,1.728178,1.726678,1.712927
2020-11-15 22:02:44.664,1.598424,1.724928,1.735178,1.712677
2020-11-15 22:02:44.681,1.599299,1.723553,1.733803,1.714177
2020-11-15 22:02:44.698,1.599424,1.715427,1.733303,1.713677
2020-11-15 22:02:44.715,1.598549,1.718177,1.730178,1.713927
2020-11-15 22:02:44.732,1.598674,1.718927,1.721303,1.713552
2020-11-15 22:02:44.749,1.598299,1.724678,1.727428,1.713302
2020-11-15 22:02:44.767,1.598424,1.727303,1.727178,1.712677
2020-11-15 22:02:44.784,1.598299,1.725553,1.737053,1.713177
2020-11-15 22:02:44.801,1.599424,1.722803,1.733428,1.713427
2020-11-15 22:02:44.818,1.598924,1.714052,1.732803,1.713677
2020-11-15 22:02:44.835,1.597674,1.718927,1.724428,1.713427
2020-11-15 22:02:44.852,1.599174,1.718802,1.727178,1.713177
2020-11-15 22:02:44.869,1.598049,1.726053,1.727553,1.711052
2020-11-15 22:02:44.886,1.598549,1.726053,1.731553,1.712552
2020-11-15 22:02:44.903,1.599049,1.724803,1.737678,1.712802
2020-11-15 22:02:44.920,1.599174,1.721928,1.733428,1.714552
2020-11-15 22:02:44.937,1.599049,1.718177,1.732053,1.713427
2020-11-15 22:02:44.954,1.598424,1.719302,1.723553,1.713427
2020-11-15 22:02:44.971,1.599049,1.721803,1.727178,1.713427
2020-11-15 22:02:44.988,1.598799,1.730053,1.727428,1.711927
2020-11-15 22:02:45.006,1.598549,1.728803,1.730303,1.712177
2020-11-15 22:02:45.023,1.599799,1.725428,1.739178,1.713427
2020-11-15 22:02:45.040,1.598799,1.721553,1.733928,1.714302
2020-11-15 22:02:45.057,1.598924,1.715052,1.733053,1.713927
2020-11-15 22:02:45.074,1.598174,1.719052,1.725803,1.713427
2020-11-15 22:02:45.091,1.599424,1.720553,1.727053,1.713302
2020-11-15 22:02:45.108,1.598424,1.729053,1.726803,1.712177
2020-11-15 22:02:45.125,1.598424,1.725803,1.730178,1.712802
2020-11-15 22:02:45.142,1.599049,1.725803,1.739053,1.713302
2020-11-15 22:02:45.159,1.599299,1.719927,1.733928,1.714427
2020-11-15 22:02:45.176,1.597674,1.716052,1.730928,1.713802
2020-11-15 22:02:45.193,1.598674,1.718677,1.721053,1.713302
2020-11-15 22:02:45.210,1.598924,1.720803,1.726928,1.712302
2020-11-15 22:02:45.228,1.598674,1.729428,1.728428,1.712802
2020-11-15 22:02:45.245,1.598674,1.725678,1.736803,1.712677
2020-11-15 22:02:45.262,1.598674,1.724928,1.733928,1.712927
2020-11-15 22:02:45.279,1.598924,1.717927,1.733428,1.713927
2020-11-15 22:02:45.296,1.598674,1.717677,1.729803,1.713802
2020-11-15 22:02:45.313,1.599424,1.718802,1.722053,1.713927
2020-11-15 22:02:45.330,1.598799,1.725553,1.727803,1.711927
2020-11-15 22:02:45.347,1.599424,1.726303,1.729053,1.712802
2020-11-15 22:02:45.364,1.602299,1.725053,1.737928,1.712552
2020-11-15 22:02:45.381,1.599799,1.722678,1.734553,1.714552
2020-11-15 22:02:45.398,1.599049,1.713927,1.733803,1.714552
2020-11-15 22:02:45.415,1.599549,1.719177,1.727553,1.713177
2020-11-15 22:02:45.432,1.600174,1.719802,1.724678,1.713927
2020-11-15 22:02:45.449,1.598674,1.727053,1.726303,1.712302
2020-11-15 22:02:45.466,1.597674,1.725928,1.728303,1.712927
2020-11-15 22:02:45.483,1.600549,1.725428,1.736678,1.713552
2020-11-15 22:02:45.500,1.598924,1.721928,1.733928,1.714052
2020-11-15 22:02:45.517,1.598924,1.713802,1.731678,1.714052
2020-11-15 22:02:45.534,1.599049,1.718302,1.722303,1.712552
2020-11-15 22:02:45.551,1.599424,1.720428,1.726928,1.713052
2020-11-15 22:02:45.568,1.598674,1.728178,1.727303,1.712302
2020-11-15 22:02:45.585,1.598674,1.725928,1.734803,1.712302
2020-11-15 22:02:45.602,1.599424,1.724928,1.734678,1.712427
2020-11-15 22:02:45.619,1.600049,1.720052,1.733678,1.714052
2020-11-15 22:02:45.636,1.598674,1.715427,1.731428,1.713302
2020-11-15 22:02:45.653,1.599424,1.718302,1.721553,1.713052
2020-11-15 22:02:45.670,1.599424,1.720803,1.726928,1.712302
2020-11-15 22:02:45.688,1.599049,1.729178,1.727428,1.712052
2020-11-15 22:02:45.705,1.598799,1.725053,1.736553,1.712927
2020-11-15 22:02:45.722,1.599674,1.724303,1.733678,1.713052
2020-11-15 22:02:45.739,1.599549,1.714302,1.733678,1.713927
2020-11-15 22:02:45.756,1.598424,1.718427,1.730053,1.713927
2020-11-15 22:02:45.773,1.600049,1.719177,1.721428,1.713927
2020-11-15 22:02:45.790,1.599174,1.725178,1.726928,1.712302
2020-11-15 22:02:45.807,1.598799,1.726678,1.728678,1.712552
2020-11-15 22:02:45.824,1.598799,1.724553,1.732553,1.712677
2020-11-15 22:02:45.842,1.599049,1.725428,1.736803,1.713052
2020-11-15 22:02:45.859,1.598924,1.717052,1.733553,1.714802
2020-11-15 22:02:45.876,1.599174,1.718427,1.732303,1.714177
2020-11-15 22:02:45.893,1.597924,1.718677,1.720553,1.712802
2020-11-15 22:02:45.910,1.598674,1.722053,1.726428,1.712677
2020-11-15 22:02:45.927,1.599299,1.730803,1.726678,1.712802
2020-11-15 22:02:45.944,1.598799,1.725178,1.739053,1.713052
2020-11-15 22:02:45.961,1.600049,1.724428,1.734303,1.713302
2020-11-15 22:02:45.979,1.598799,1.715927,1.733678,1.714427
2020-11-15 22:02:45.996,1.599049,1.718052,1.726428,1.713177
2020-11-15 22:02:46.013,1.599674,1.718927,1.726303,1.712552
2020-11-15 22:02:46.030,1.598424,1.723553,1.726803,1.712427
2020-11-15 22:02:46.047,1.598424,1.729303,1.729928,1.713052
2020-11-15 22:02:46.064,1.598924,1.725303,1.739053,1.712802
2020-11-15 22:02:46.081,1.599049,1.722928,1.734053,1.712927
2020-11-15 22:02:46.098,1.599674,1.715802,1.733303,1.714177
2020-11-15 22:02:46.115,1.598549,1.718302,1.725428,1.712927
2020-11-15 22:02:46.132,1.600049,1.718677,1.726678,1.713052
2020-11-15 22:02:46.149,1.598799,1.724178,1.727428,1.712302
2020-11-15 22:02:46.166,1.599174,1.726428,1.730053,1.712427
2020-11-15 22:02:46.183,1.598799,1.725053,1.739553,1.712427
2020-11-15 22:02:46.200,1.599174,1.722178,1.733553,1.713177
2020-11-15 22:02:46.217,1.598799,1.712802,1.732303,1.712677
2020-11-15 22:02:46.234,1.598174,1.718427,1.724553,1.713677
2020-11-15 22:02:46.251,1.598924,1.718552,1.726303,1.712802
2020-11-15 22:02:46.268,1.598424,1.730303,1.728053,1.712677
2020-11-15 22:02:46.285,1.598924,1.725428,1.731928,1.712552
2020-11-15 22:02:46.302,1.600049,1.725303,1.738303,1.713927
2020-11-15 22:02:46.319,1.598049,1.717927,1.733428,1.714427
2020-11-15 22:02:46.336,1.598674,1.718177,1.731803,1.713427
2020-11-15 22:02:46.353,1.598299,1.719177,1.721928,1.713677
2020-11-15 22:02:46.371,1.598549,1.721553,1.726678,1.712802
2020-11-15 22:02:46.388,1.598674,1.730553,1.726678,1.712927
2020-11-15 22:02:46.405,1.598674,1.724803,1.732803,1.711927
2020-11-15 22:02:46.422,1.599174,1.724428,1.734303,1.713302
2020-11-15 22:02:46.439,1.598424,1.716052,1.733803,1.714427
2020-11-15 22:02:46.456,1.598799,1.718677,1.727803,1.713427
2020-11-15 22:02:46.473,1.599674,1.718927,1.724803,1.713427
2020-11-15 22:02:46.490,1.598674,1.722303,1.727053,1.712052
2020-11-15 22:02:46.507,1.598424,1.728928,1.729303,1.712052
2020-11-15 22:02:46.524,1.599549,1.724678,1.738428,1.712427
2020-11-15 22:02:46.541,1.599299,1.723303,1.733803,1.712427
2020-11-15 22:02:46.558,1.598174,1.714427,1.733303,1.713177
2020-11-15 22:02:46.575,1.599049,1.717677,1.725428,1.712552
2020-11-15 22:02:46.592,1.600174,1.720052,1.726928,1.712927
2020-11-15 22:02:46.609,1.599299,1.728928,1.727678,1.712552
2020-11-15 22:02:46.626,1.598799,1.725928,1.729928,1.712677
2020-11-15 22:02:46.643,1.599549,1.724803,1.739428,1.712177
2020-11-15 22:02:46.661,1.599549,1.722928,1.734053,1.714177
2020-11-15 22:02:46.678,1.599924,1.714302,1.733803,1.713927
2020-11-15 22:02:46.695,1.598299,1.718177,1.729428,1.713677
2020-11-15 22:02:46.713,1.599549,1.718677,1.722553,1.713552
2020-11-15 22:02:46.730,1.599174,1.725803,1.726803,1.711677
2020-11-15 22:02:46.747,1.597924,1.725803,1.728803,1.712802
2020-11-15 22:02:46.764,1.599299,1.725303,1.737178,1.712802
2020-11-15 22:02:46.781,1.600174,1.722428,1.734053,1.714177
2020-11-15 22:02:46.798,1.598174,1.713677,1.731678,1.713552
2020-11-15 22:02:46.815,1.598674,1.718802,1.723053,1.713552
2020-11-15 22:02:46.832,1.599299,1.719177,1.726803,1.712677
2020-11-15 22:02:46.849,1.598799,1.727928,1.726803,1.711802
2020-11-15 22:02:46.866,1.598174,1.725428,1.732553,1.712302
2020-11-15 22:02:46.883,1.599799,1.724803,1.736053,1.712552
2020-11-15 22:02:46.900,1.599299,1.721803,1.733928,1.713927
2020-11-15 22:02:46.917,1.598424,1.713052,1.730553,1.712802
2020-11-15 22:02:46.934,1.598049,1.719052,1.722428,1.713052
2020-11-15 22:02:46.951,1.598799,1.719177,1.726928,1.712677
2020-11-15 22:02:46.968,1.598549,1.728678,1.727803,1.712052
2020-11-15 22:02:46.986,1.598674,1.725678,1.729053,1.712802
2020-11-15 22:02:47.003,1.598549,1.725053,1.734303,1.712552
2020-11-15 22:02:47.020,1.599424,1.720052,1.733553,1.713802
2020-11-15 22:02:47.037,1.597799,1.715802,1.730303,1.713302
2020-11-15 22:02:47.054,1.599924,1.718177,1.721928,1.713052
2020-11-15 22:02:47.071,1.598674,1.720302,1.726928,1.712677
2020-11-15 22:02:47.088,1.598424,1.729178,1.727928,1.711802
2020-11-15 22:02:47.105,1.598424,1.725553,1.735678,1.712677
2020-11-15 22:02:47.122,1.599799,1.724928,1.733803,1.712302
2020-11-15 22:02:47.139,1.598799,1.717677,1.733303,1.714052
2020-11-15 22:02:47.156,1.598049,1.716802,1.729803,1.713927
2020-11-15 22:02:47.173,1.598924,1.718177,1.721928,1.712802
2020-11-15 22:02:47.190,1.598424,1.720177,1.727303,1.712552
2020-11-15 22:02:47.207,1.600174,1.725678,1.727803,1.712677
2020-11-15 22:02:47.224,1.599424,1.724803,1.737053,1.712552
2020-11-15 22:02:47.241,1.599424,1.722803,1.734303,1.713427
2020-11-15 22:02:47.258,1.598674,1.713177,1.733803,1.713427
2020-11-15 22:02:47.275,1.595799,1.719177,1.728053,1.713552
2020-11-15 22:02:47.292,1.598924,1.718927,1.723303,1.712927
2020-11-15 22:02:47.309,1.599174,1.726928,1.726428,1.712177
2020-11-15 22:02:47.326,1.598049,1.725178,1.728553,1.712427
2020-11-15 22:02:47.343,1.598674,1.724303,1.737803,1.712677
2020-11-15 22:02:47.360,1.597549,1.722053,1.733678,1.714177
2020-11-15 22:02:47.377,1.598424,1.713427,1.733178,1.713427
2020-11-15 22:02:47.395,1.597424,1.718302,1.722803,1.713677
2020-11-15 22:02:47.412,1.599049,1.719802,1.726803,1.713177
2020-11-15 22:02:47.429,1.598299,1.727553,1.727178,1.712427
2020-11-15 22:02:47.446,1.598799,1.725178,1.733553,1.712802
2020-11-15 22:02:47.463,1.598799,1.725053,1.734428,1.712677
2020-11-15 22:02:47.480,1.598299,1.722053,1.733178,1.712927
2020-11-15 22:02:47.498,1.597299,1.714927,1.733678,1.714302
2020-11-15 22:02:47.515,1.598674,1.718177,1.724053,1.713177
2020-11-15 22:02:47.532,1.599549,1.718552,1.726178,1.712177
2020-11-15 22:02:47.549,1.598674,1.724303,1.727303,1.711302
2020-11-15 22:02:47.566,1.598174,1.725678,1.730178,1.712302
2020-11-15 22:02:47.583,1.599174,1.724428,1.739178,1.712802
2020-11-15 22:02:47.600,1.598799,1.719427,1.733553,1.714427
2020-11-15 22:02:47.617,1.598674,1.716927,1.732303,1.713677
2020-11-15 22:02:47.634,1.597924,1.718802,1.723803,1.713302
2020-11-15 22:02:47.651,1.599174,1.720678,1.725553,1.712302
2020-11-15 22:02:47.668,1.597424,1.729928,1.726803,1.712302
2020-11-15 22:02:47.685,1.597174,1.724678,1.731428,1.712552
2020-11-15 22:02:47.702,1.600049,1.724678,1.736803,1.712802
2020-11-15 22:02:47.719,1.598674,1.717427,1.732428,1.714427
2020-11-15 22:02:47.736,1.598549,1.718052,1.731053,1.713552
2020-11-15 22:02:47.753,1.598799,1.718677,1.723303,1.712427
2020-11-15 22:02:47.770,1.598924,1.721053,1.725428,1.712052
2020-11-15 22:02:47.788,1.597924,1.730803,1.726303,1.712677
2020-11-15 22:02:47.805,1.598549,1.724553,1.737053,1.712677
2020-11-15 22:02:47.822,1.598424,1.723678,1.734053,1.712677
2020-11-15 22:02:47.839,1.599299,1.715802,1.733553,1.713802
2020-11-15 22:02:47.856,1.598299,1.718177,1.727053,1.713677
2020-11-15 22:02:47.873,1.599924,1.717927,1.724803,1.712552
2020-11-15 22:02:47.890,1.598299,1.721928,1.726553,1.711927
2020-11-15 22:02:47.907,1.598799,1.728928,1.729303,1.712052
2020-11-15 22:02:47.924,1.599549,1.724053,1.738553,1.711802
2020-11-15 22:02:47.941,1.598799,1.722928,1.732428,1.711677
2020-11-15 22:02:47.958,1.599049,1.715052,1.732928,1.713427
2020-11-15 22:02:47.975,1.597924,1.718427,1.725303,1.713177
2020-11-15 22:02:47.992,1.598424,1.719802,1.726678,1.712927
2020-11-15 22:02:48.009,1.598549,1.728178,1.726803,1.711677
2020-11-15 22:02:48.026,1.597924,1.725428,1.729678,1.712552
2020-11-15 22:02:48.043,1.599174,1.725053,1.739178,1.712427
2020-11-15 22:02:48.060,1.598674,1.719302,1.733053,1.713927
2020-11-15 22:02:48.077,1.597924,1.715552,1.732053,1.713052
2020-11-15 22:02:48.094,1.597424,1.718052,1.723053,1.713552
2020-11-15 22:02:48.111,1.598174,1.721053,1.725803,1.713052
2020-11-15 22:02:48.128,1.598424,1.730053,1.726303,1.711927
2020-11-15 22:02:48.145,1.597924,1.725303,1.730178,1.712552
2020-11-15 22:02:48.162,1.598174,1.724303,1.733553,1.712302
2020-11-15 22:02:48.179,1.598424,1.718302,1.733303,1.713802
2020-11-15 22:02:48.196,1.597924,1.717927,1.729303,1.713177
2020-11-15 22:02:48.213,1.599549,1.718302,1.721928,1.713052
2020-11-15 22:02:48.230,1.597174,1.720678,1.727178,1.711552
2020-11-15 22:02:48.247,1.597799,1.729928,1.728553,1.712177
2020-11-15 22:02:48.264,1.598799,1.724553,1.737178,1.711677
2020-11-15 22:02:48.281,1.599424,1.723803,1.733803,1.711427
2020-11-15 22:02:48.299,1.598174,1.716052,1.732553,1.712552
2020-11-15 22:02:48.317,1.597924,1.713177,1.731053,1.713302
2020-11-15 22:02:48.334,1.598674,1.718302,1.721053,1.712552
2020-11-15 22:02:48.351,1.599049,1.718927,1.725803,1.711802
2020-11-15 22:02:48.368,1.598674,1.727553,1.726928,1.711677
2020-11-15 22:02:48.385,1.598424,1.725178,1.733803,1.712302
2020-11-15 22:02:48.402,1.598549,1.724803,1.733928,1.711302
2020-11-15 22:02:48.419,1.597924,1.718552,1.733303,1.714177
2020-11-15 22:02:48.436,1.597674,1.717302,1.730053,1.713677
2020-11-15 22:02:48.453,1.598799,1.718427,1.720553,1.713052
2020-11-15 22:02:48.470,1.598049,1.722678,1.726928,1.712427
2020-11-15 22:02:48.487,1.598424,1.728053,1.727178,1.711927
2020-11-15 22:02:48.504,1.598674,1.724553,1.734928,1.712177
2020-11-15 22:02:48.521,1.598049,1.722553,1.733678,1.712677
2020-11-15 22:02:48.539,1.598549,1.715052,1.733553,1.713677
2020-11-15 22:02:48.556,1.599674,1.718427,1.729553,1.712927
2020-11-15 22:02:48.573,1.599549,1.718552,1.721053,1.712677
2020-11-15 22:02:48.590,1.596799,1.724553,1.726303,1.712052
2020-11-15 22:02:48.607,1.597549,1.726803,1.730053,1.712302
2020-11-15 22:02:48.624,1.600174,1.724178,1.738678,1.712177
2020-11-15 22:02:48.641,1.599174,1.721928,1.733053,1.713052
2020-11-15 22:02:48.658,1.598799,1.713677,1.732553,1.712802
2020-11-15 22:02:48.675,1.599924,1.717677,1.723803,1.712677
2020-11-15 22:02:48.692,1.598799,1.718177,1.725553,1.712427
2020-11-15 22:02:48.709,1.598299,1.726053,1.726553,1.711052
2020-11-15 22:02:48.726,1.596924,1.724428,1.731428,1.711677
2020-11-15 22:02:48.743,1.599549,1.724303,1.736678,1.711177
