Datetime,chan0,chan1,chan2,chan3
2020-11-15 22:12:15.231,1.584048,1.711927,1.719802,1.698927
2020-11-15 22:12:15.248,1.585923,1.711552,1.725178,1.699302
2020-11-15 22:12:15.265,1.583798,1.707677,1.721303,1.701052
2020-11-15 22:12:15.282,1.583798,1.704427,1.718177,1.700802
2020-11-15 22:12:15.299,1.585673,1.705802,1.709177,1.699427
2020-11-15 22:12:15.316,1.585673,1.709427,1.714177,1.699677
2020-11-15 22:12:15.333,1.585173,1.716927,1.714302,1.699927
2020-11-15 22:12:15.350,1.584173,1.711677,1.721803,1.699302
2020-11-15 22:12:15.367,1.584423,1.710677,1.721303,1.700052
2020-11-15 22:12:15.384,1.584798,1.702177,1.720803,1.701177
2020-11-15 22:12:15.401,1.585423,1.704552,1.712552,1.700052
2020-11-15 22:12:15.418,1.585798,1.705802,1.713677,1.699552
2020-11-15 22:12:15.435,1.584423,1.711052,1.714177,1.699177
2020-11-15 22:12:15.452,1.585673,1.712677,1.717427,1.699552
2020-11-15 22:12:15.469,1.584423,1.712552,1.727178,1.699302
2020-11-15 22:12:15.486,1.584173,1.705927,1.720803,1.701427
2020-11-15 22:12:15.503,1.584423,1.703677,1.719427,1.700802
2020-11-15 22:12:15.520,1.584173,1.705802,1.709927,1.700302
2020-11-15 22:12:15.537,1.585048,1.707927,1.714677,1.699427
2020-11-15 22:12:15.554,1.585423,1.717177,1.715802,1.699677
2020-11-15 22:12:15.571,1.583798,1.711552,1.724428,1.699177
2020-11-15 22:12:15.588,1.584673,1.711302,1.721678,1.699427
2020-11-15 22:12:15.605,1.584048,1.702177,1.721178,1.701052
2020-11-15 22:12:15.622,1.584798,1.704302,1.714927,1.699927
2020-11-15 22:12:15.639,1.584673,1.705552,1.709802,1.699927
2020-11-15 22:12:15.657,1.584423,1.708802,1.713927,1.699302
2020-11-15 22:12:15.674,1.584673,1.717552,1.714302,1.699677
2020-11-15 22:12:15.691,1.585798,1.712302,1.722303,1.699177
2020-11-15 22:12:15.708,1.584673,1.710677,1.720428,1.700677
2020-11-15 22:12:15.725,1.584423,1.702177,1.720428,1.701427
2020-11-15 22:12:15.742,1.584298,1.704927,1.713177,1.700427
2020-11-15 22:12:15.759,1.586798,1.705052,1.713427,1.700427
2020-11-15 22:12:15.776,1.585923,1.711302,1.714427,1.698802
2020-11-15 22:12:15.793,1.585548,1.714552,1.718552,1.698927
2020-11-15 22:12:15.810,1.585548,1.712177,1.727053,1.698802
2020-11-15 22:12:15.827,1.583798,1.708802,1.721178,1.700302
2020-11-15 22:12:15.844,1.585173,1.703427,1.719802,1.700677
2020-11-15 22:12:15.861,1.586173,1.706052,1.710302,1.700177
2020-11-15 22:12:15.878,1.585798,1.708302,1.714177,1.699177
2020-11-15 22:12:15.895,1.585048,1.717552,1.714302,1.699927
2020-11-15 22:12:15.912,1.584673,1.712177,1.719677,1.699552
2020-11-15 22:12:15.929,1.584173,1.711552,1.724178,1.700427
2020-11-15 22:12:15.946,1.584048,1.703302,1.721428,1.702177
2020-11-15 22:12:15.963,1.583673,1.704552,1.715177,1.700677
2020-11-15 22:12:15.980,1.585548,1.705677,1.710802,1.700052
2020-11-15 22:12:15.997,1.584923,1.709427,1.714677,1.698552
2020-11-15 22:12:16.014,1.584423,1.717177,1.716927,1.698177
2020-11-15 22:12:16.031,1.584798,1.711927,1.726803,1.699927
2020-11-15 22:12:16.048,1.584423,1.708302,1.721428,1.700677
2020-11-15 22:12:16.065,1.584298,1.700552,1.720428,1.701427
2020-11-15 22:12:16.082,1.584548,1.705802,1.712802,1.700052
2020-11-15 22:12:16.099,1.586673,1.707052,1.713177,1.699802
2020-11-15 22:12:16.115,1.584423,1.716302,1.713802,1.699052
2020-11-15 22:12:16.132,1.584673,1.712802,1.723303,1.699677
2020-11-15 22:12:16.149,1.584548,1.712052,1.721678,1.699927
2020-11-15 22:12:16.166,1.583923,1.705552,1.721178,1.701427
2020-11-15 22:12:16.183,1.583173,1.702927,1.717427,1.700177
2020-11-15 22:12:16.200,1.586673,1.705302,1.708302,1.700052
2020-11-15 22:12:16.217,1.585673,1.707927,1.714302,1.699052
2020-11-15 22:12:16.234,1.584798,1.714927,1.715552,1.698927
2020-11-15 22:12:16.251,1.583673,1.712177,1.724678,1.699177
2020-11-15 22:12:16.268,1.584048,1.708927,1.721178,1.701052
2020-11-15 22:12:16.285,1.584298,1.701052,1.721053,1.701427
2020-11-15 22:12:16.302,1.583923,1.705552,1.714927,1.701052
2020-11-15 22:12:16.319,1.586173,1.705802,1.713552,1.699677
2020-11-15 22:12:16.336,1.584423,1.715427,1.714427,1.698677
2020-11-15 22:12:16.353,1.584923,1.712802,1.720428,1.699302
2020-11-15 22:12:16.370,1.585423,1.711802,1.724803,1.699177
2020-11-15 22:12:16.387,1.583798,1.707927,1.721303,1.700677
2020-11-15 22:12:16.404,1.585048,1.699427,1.718427,1.699552
2020-11-15 22:12:16.421,1.585798,1.705302,1.709802,1.700177
2020-11-15 22:12:16.438,1.586173,1.709802,1.714052,1.699552
2020-11-15 22:12:16.455,1.585048,1.717302,1.714302,1.698302
2020-11-15 22:12:16.473,1.585048,1.713177,1.717802,1.699427
2020-11-15 22:12:16.490,1.584798,1.712052,1.727303,1.699552
2020-11-15 22:12:16.507,1.584048,1.705802,1.720553,1.701927
2020-11-15 22:12:16.524,1.584423,1.702927,1.717552,1.700552
2020-11-15 22:12:16.541,1.585548,1.705552,1.708302,1.700177
2020-11-15 22:12:16.558,1.585298,1.708677,1.715177,1.699427
2020-11-15 22:12:16.575,1.585048,1.716677,1.715927,1.698927
2020-11-15 22:12:16.592,1.584548,1.711927,1.725053,1.699177
2020-11-15 22:12:16.609,1.586673,1.709802,1.722053,1.700552
2020-11-15 22:12:16.626,1.584423,1.700302,1.720678,1.700677
2020-11-15 22:12:16.643,1.584298,1.705677,1.715802,1.700927
2020-11-15 22:12:16.660,1.585548,1.705552,1.710427,1.700427
2020-11-15 22:12:16.677,1.585173,1.714427,1.714052,1.698802
2020-11-15 22:12:16.694,1.584798,1.712927,1.716677,1.699802
2020-11-15 22:12:16.711,1.585173,1.712052,1.724803,1.700052
2020-11-15 22:12:16.728,1.584048,1.708427,1.721178,1.701052
2020-11-15 22:12:16.745,1.583798,1.699677,1.718552,1.699802
2020-11-15 22:12:16.762,1.585423,1.705552,1.709427,1.699427
2020-11-15 22:12:16.779,1.585048,1.706677,1.713802,1.699427
2020-11-15 22:12:16.796,1.584923,1.718802,1.714677,1.699302
2020-11-15 22:12:16.813,1.585298,1.712302,1.722553,1.699677
2020-11-15 22:12:16.830,1.584673,1.711052,1.721678,1.700427
2020-11-15 22:12:16.847,1.584673,1.701927,1.720428,1.701177
2020-11-15 22:12:16.864,1.584048,1.705427,1.713177,1.700927
2020-11-15 22:12:16.881,1.588548,1.705677,1.714177,1.700177
2020-11-15 22:12:16.898,1.585673,1.711552,1.714927,1.698427
2020-11-15 22:12:16.915,1.585173,1.715177,1.718552,1.699302
2020-11-15 22:12:16.932,1.584673,1.711802,1.727928,1.699677
2020-11-15 22:12:16.949,1.584798,1.709177,1.721178,1.699677
2020-11-15 22:12:16.966,1.584173,1.700302,1.720177,1.700677
2020-11-15 22:12:16.983,1.584173,1.705802,1.711302,1.700677
2020-11-15 22:12:17.000,1.586048,1.707802,1.713802,1.699302
2020-11-15 22:12:17.017,1.585298,1.717427,1.714927,1.699302
2020-11-15 22:12:17.034,1.584923,1.712302,1.719427,1.699427
2020-11-15 22:12:17.050,1.584173,1.711552,1.724803,1.700177
2020-11-15 22:12:17.067,1.584673,1.704302,1.721053,1.701677
2020-11-15 22:12:17.084,1.585173,1.705177,1.715427,1.699927
2020-11-15 22:12:17.101,1.586673,1.705677,1.711052,1.700552
2020-11-15 22:12:17.119,1.585923,1.709302,1.714802,1.699302
2020-11-15 22:12:17.136,1.585298,1.718177,1.713802,1.700052
2020-11-15 22:12:17.153,1.584673,1.712677,1.726678,1.699552
2020-11-15 22:12:17.170,1.584673,1.710677,1.721303,1.700052
2020-11-15 22:12:17.187,1.585048,1.702302,1.721178,1.701427
2020-11-15 22:12:17.204,1.585423,1.705177,1.712927,1.700927
2020-11-15 22:12:17.221,1.586548,1.705927,1.713552,1.699177
2020-11-15 22:12:17.238,1.585298,1.711177,1.714677,1.700052
2020-11-15 22:12:17.255,1.585298,1.715052,1.717927,1.700052
2020-11-15 22:12:17.272,1.585423,1.711927,1.727428,1.699552
2020-11-15 22:12:17.289,1.584048,1.709802,1.721553,1.701302
2020-11-15 22:12:17.307,1.586048,1.701427,1.720803,1.701052
2020-11-15 22:12:17.324,1.584423,1.704802,1.716052,1.700927
2020-11-15 22:12:17.341,1.586548,1.706552,1.709927,1.700552
2020-11-15 22:12:17.358,1.585173,1.713927,1.715177,1.698677
2020-11-15 22:12:17.375,1.585298,1.712427,1.719552,1.699427
2020-11-15 22:12:17.392,1.584548,1.712177,1.725803,1.699552
2020-11-15 22:12:17.409,1.584298,1.708302,1.721303,1.700552
2020-11-15 22:12:17.426,1.583923,1.699927,1.719677,1.700177
2020-11-15 22:12:17.443,1.585923,1.704802,1.709677,1.699927
2020-11-15 22:12:17.460,1.585173,1.706177,1.713677,1.698927
2020-11-15 22:12:17.477,1.584548,1.718552,1.714427,1.699677
2020-11-15 22:12:17.494,1.585048,1.712302,1.722428,1.699927
2020-11-15 22:12:17.511,1.585298,1.710802,1.721678,1.700177
2020-11-15 22:12:17.528,1.583798,1.702302,1.720428,1.701677
2020-11-15 22:12:17.545,1.583298,1.704802,1.717927,1.700302
2020-11-15 22:12:17.562,1.585923,1.705802,1.712677,1.700552
2020-11-15 22:12:17.579,1.584673,1.711302,1.714677,1.699177
2020-11-15 22:12:17.596,1.585798,1.715552,1.718052,1.699802
2020-11-15 22:12:17.613,1.584173,1.712427,1.727428,1.698802
2020-11-15 22:12:17.630,1.584173,1.709677,1.721053,1.700177
2020-11-15 22:12:17.647,1.584298,1.699927,1.719427,1.699677
2020-11-15 22:12:17.664,1.584173,1.704552,1.711052,1.700302
2020-11-15 22:12:17.681,1.586298,1.708177,1.713927,1.699677
2020-11-15 22:12:17.698,1.585173,1.716427,1.713802,1.699302
2020-11-15 22:12:17.715,1.585298,1.713052,1.719177,1.699677
2020-11-15 22:12:17.732,1.584048,1.712177,1.725803,1.699927
2020-11-15 22:12:17.749,1.583798,1.704427,1.720428,1.701677
2020-11-15 22:12:17.766,1.583673,1.704677,1.716427,1.699927
2020-11-15 22:12:17.783,1.584798,1.705302,1.709927,1.699677
2020-11-15 22:12:17.800,1.585298,1.708927,1.714552,1.698552
2020-11-15 22:12:17.817,1.584798,1.717802,1.717052,1.699302
2020-11-15 22:12:17.834,1.584923,1.711802,1.725553,1.699177
2020-11-15 22:12:17.851,1.584923,1.710802,1.721803,1.700802
2020-11-15 22:12:17.868,1.585048,1.700302,1.720803,1.700302
2020-11-15 22:12:17.885,1.584048,1.705302,1.713927,1.700552
2020-11-15 22:12:17.902,1.585798,1.707052,1.712927,1.700052
2020-11-15 22:12:17.919,1.585548,1.714802,1.714302,1.699552
2020-11-15 22:12:17.936,1.584423,1.712802,1.717427,1.698927
2020-11-15 22:12:17.953,1.583923,1.712177,1.727178,1.699677
2020-11-15 22:12:17.970,1.583423,1.706927,1.720428,1.701427
2020-11-15 22:12:17.987,1.583173,1.701427,1.719927,1.700302
2020-11-15 22:12:18.004,1.583423,1.705427,1.710927,1.700552
2020-11-15 22:12:18.021,1.586048,1.707802,1.714302,1.700177
2020-11-15 22:12:18.038,1.585173,1.716302,1.715552,1.699052
2020-11-15 22:12:18.055,1.584548,1.712802,1.724428,1.699052
2020-11-15 22:12:18.072,1.585423,1.712052,1.722303,1.699552
2020-11-15 22:12:18.089,1.583923,1.704927,1.721053,1.700677
2020-11-15 22:12:18.106,1.583923,1.704177,1.716927,1.699052
2020-11-15 22:12:18.124,1.584798,1.705302,1.709927,1.700302
2020-11-15 22:12:18.141,1.586048,1.706177,1.713927,1.699677
2020-11-15 22:12:18.158,1.584923,1.714802,1.714552,1.698052
2020-11-15 22:12:18.175,1.584798,1.712552,1.721303,1.699427
2020-11-15 22:12:18.193,1.585423,1.711802,1.723178,1.699177
2020-11-15 22:12:18.210,1.584173,1.707802,1.721553,1.700552
2020-11-15 22:12:18.227,1.584298,1.700052,1.718052,1.700302
2020-11-15 22:12:18.244,1.587173,1.705302,1.709177,1.700427
2020-11-15 22:12:18.261,1.585048,1.709427,1.713927,1.698927
2020-11-15 22:12:18.278,1.585548,1.716802,1.714802,1.699302
2020-11-15 22:12:18.295,1.585548,1.711927,1.723303,1.699552
2020-11-15 22:12:18.312,1.585423,1.710302,1.721053,1.699677
2020-11-15 22:12:18.329,1.584798,1.701802,1.721178,1.701177
2020-11-15 22:12:18.346,1.584298,1.704802,1.717302,1.700802
2020-11-15 22:12:18.363,1.585673,1.705552,1.708427,1.700927
2020-11-15 22:12:18.380,1.584423,1.712677,1.714177,1.699302
2020-11-15 22:12:18.397,1.584423,1.714052,1.715552,1.699552
2020-11-15 22:12:18.414,1.584423,1.712052,1.724928,1.699552
2020-11-15 22:12:18.431,1.584548,1.709177,1.721553,1.700677
2020-11-15 22:12:18.448,1.583298,1.701052,1.720302,1.700677
2020-11-15 22:12:18.465,1.585173,1.705302,1.711302,1.700427
2020-11-15 22:12:18.482,1.586673,1.705927,1.713552,1.700052
2020-11-15 22:12:18.499,1.586298,1.714552,1.714802,1.698802
2020-11-15 22:12:18.516,1.584548,1.712427,1.720928,1.699177
2020-11-15 22:12:18.533,1.584548,1.711927,1.725303,1.699927
2020-11-15 22:12:18.550,1.585423,1.707802,1.721178,1.700302
2020-11-15 22:12:18.567,1.584548,1.700177,1.718302,1.699677
2020-11-15 22:12:18.584,1.585298,1.704802,1.708802,1.699177
2020-11-15 22:12:18.601,1.585423,1.706927,1.714177,1.699677
2020-11-15 22:12:18.618,1.586048,1.717552,1.714552,1.699677
2020-11-15 22:12:18.635,1.584298,1.712052,1.722553,1.699302
2020-11-15 22:12:18.652,1.584798,1.711177,1.721928,1.700302
2020-11-15 22:12:18.669,1.584298,1.702427,1.720928,1.700927
2020-11-15 22:12:18.686,1.584048,1.705427,1.717302,1.700552
2020-11-15 22:12:18.703,1.585923,1.705802,1.707302,1.700302
2020-11-15 22:12:18.720,1.584048,1.711552,1.714552,1.699052
2020-11-15 22:12:18.738,1.585298,1.714677,1.715177,1.699052
2020-11-15 22:12:18.755,1.585923,1.712052,1.724553,1.699802
2020-11-15 22:12:18.772,1.584548,1.709552,1.721553,1.700927
2020-11-15 22:12:18.789,1.583548,1.700427,1.719677,1.701177
2020-11-15 22:12:18.806,1.586173,1.705552,1.711177,1.700177
2020-11-15 22:12:18.823,1.585673,1.706177,1.713927,1.700052
2020-11-15 22:12:18.840,1.585423,1.713677,1.714677,1.698927
2020-11-15 22:12:18.857,1.584048,1.712427,1.719552,1.699177
2020-11-15 22:12:18.874,1.585048,1.711427,1.724678,1.699677
2020-11-15 22:12:18.891,1.586548,1.708677,1.720928,1.700677
2020-11-15 22:12:18.908,1.585173,1.700052,1.718552,1.700177
2020-11-15 22:12:18.925,1.586423,1.705427,1.709802,1.699677
2020-11-15 22:12:18.942,1.586048,1.706302,1.713052,1.699427
2020-11-15 22:12:18.960,1.585798,1.710427,1.714677,1.698802
2020-11-15 22:12:18.977,1.585048,1.714927,1.717427,1.698302
2020-11-15 22:12:18.994,1.584423,1.711677,1.727053,1.699302
2020-11-15 22:12:19.011,1.583048,1.709427,1.721053,1.700052
2020-11-15 22:12:19.029,1.585548,1.700677,1.720052,1.700302
2020-11-15 22:12:19.046,1.585048,1.705052,1.711677,1.700677
2020-11-15 22:12:19.063,1.588423,1.708302,1.713927,1.700677
2020-11-15 22:12:19.080,1.585173,1.716927,1.715052,1.699427
2020-11-15 22:12:19.097,1.585798,1.712802,1.719302,1.699177
2020-11-15 22:12:19.114,1.584423,1.712052,1.726428,1.699802
2020-11-15 22:12:19.131,1.584048,1.704802,1.720553,1.701552
2020-11-15 22:12:19.148,1.584298,1.704802,1.718677,1.700302
2020-11-15 22:12:19.165,1.585173,1.705802,1.709552,1.700552
2020-11-15 22:12:19.182,1.586798,1.708802,1.715052,1.699302
2020-11-15 22:12:19.199,1.585673,1.717802,1.715927,1.699302
2020-11-15 22:12:19.216,1.585423,1.712552,1.726428,1.698927
2020-11-15 22:12:19.233,1.585673,1.711302,1.722303,1.700052
2020-11-15 22:12:19.250,1.584048,1.702177,1.720678,1.701427
2020-11-15 22:12:19.267,1.585173,1.704052,1.714802,1.699677
2020-11-15 22:12:19.284,1.587673,1.705552,1.712427,1.700427
2020-11-15 22:12:19.301,1.584673,1.710302,1.714427,1.698677
2020-11-15 22:12:19.318,1.585798,1.715427,1.716927,1.698802
2020-11-15 22:12:19.335,1.585673,1.711427,1.725553,1.699427
2020-11-15 22:12:19.352,1.584173,1.707552,1.721553,1.700927
2020-11-15 22:12:19.369,1.584298,1.701052,1.720302,1.700677
2020-11-15 22:12:19.386,1.584923,1.705927,1.712052,1.700802
2020-11-15 22:12:19.403,1.587298,1.707552,1.713802,1.700052
2020-11-15 22:12:19.420,1.586548,1.716302,1.714302,1.699427
2020-11-15 22:12:19.438,1.585673,1.713302,1.717802,1.699427
2020-11-15 22:12:19.455,1.585173,1.712302,1.727178,1.699052
2020-11-15 22:12:19.472,1.583923,1.708802,1.721428,1.700552
2020-11-15 22:12:19.489,1.583923,1.699677,1.719802,1.700052
2020-11-15 22:12:19.506,1.585423,1.705052,1.710552,1.700552
2020-11-15 22:12:19.523,1.586548,1.708427,1.714052,1.699802
2020-11-15 22:12:19.540,1.585298,1.717677,1.714927,1.699427
2020-11-15 22:12:19.557,1.585673,1.712302,1.720428,1.699427
2020-11-15 22:12:19.574,1.585673,1.711927,1.724178,1.700427
2020-11-15 22:12:19.591,1.584048,1.703052,1.720428,1.701802
2020-11-15 22:12:19.608,1.583048,1.704552,1.717927,1.700552
2020-11-15 22:12:19.625,1.584548,1.705677,1.709052,1.700302
2020-11-15 22:12:19.642,1.586048,1.709802,1.713427,1.699052
2020-11-15 22:12:19.659,1.585048,1.717052,1.714302,1.699177
2020-11-15 22:12:19.676,1.583548,1.712302,1.727178,1.699802
2020-11-15 22:12:19.693,1.584673,1.710427,1.721803,1.700302
2020-11-15 22:12:19.710,1.585298,1.702052,1.721178,1.700677
2020-11-15 22:12:19.727,1.584548,1.705302,1.712677,1.700052
2020-11-15 22:12:19.744,1.586048,1.705302,1.713427,1.700427
2020-11-15 22:12:19.761,1.585798,1.711802,1.714927,1.698302
2020-11-15 22:12:19.779,1.585923,1.716802,1.715427,1.698552
2020-11-15 22:12:19.796,1.584423,1.711427,1.724803,1.699677
2020-11-15 22:12:19.813,1.586298,1.711052,1.721678,1.700802
2020-11-15 22:12:19.830,1.585423,1.700927,1.720553,1.700802
2020-11-15 22:12:19.848,1.584923,1.705427,1.716177,1.701177
2020-11-15 22:12:19.865,1.585923,1.705427,1.710552,1.700552
2020-11-15 22:12:19.882,1.585798,1.714177,1.714677,1.698802
2020-11-15 22:12:19.899,1.585298,1.712802,1.716927,1.700552
2020-11-15 22:12:19.916,1.585423,1.712177,1.725803,1.699552
2020-11-15 22:12:19.933,1.584298,1.708427,1.720428,1.701052
2020-11-15 22:12:19.950,1.584048,1.699552,1.720302,1.700677
2020-11-15 22:12:19.967,1.585048,1.705302,1.712427,1.700927
2020-11-15 22:12:19.984,1.587048,1.707177,1.714302,1.700302
2020-11-15 22:12:20.001,1.586173,1.715427,1.714802,1.698802
2020-11-15 22:12:20.018,1.586048,1.712677,1.722553,1.699302
2020-11-15 22:12:20.035,1.585423,1.712302,1.722553,1.699927
2020-11-15 22:12:20.052,1.585048,1.706677,1.721428,1.701302
2020-11-15 22:12:20.069,1.584173,1.702177,1.717552,1.700177
2020-11-15 22:12:20.086,1.585923,1.705052,1.708427,1.700552
2020-11-15 22:12:20.103,1.585423,1.708302,1.714427,1.699552
2020-11-15 22:12:20.120,1.585548,1.716677,1.715427,1.698927
2020-11-15 22:12:20.137,1.585048,1.712177,1.724803,1.699302
2020-11-15 22:12:20.154,1.585048,1.712552,1.722053,1.699427
2020-11-15 22:12:20.171,1.584673,1.704302,1.720803,1.701302
2020-11-15 22:12:20.188,1.585048,1.704427,1.717177,1.700427
2020-11-15 22:12:20.205,1.586673,1.705052,1.709677,1.699802
2020-11-15 22:12:20.222,1.585673,1.713552,1.714677,1.699302
2020-11-15 22:12:20.239,1.585923,1.713302,1.716427,1.699677
2020-11-15 22:12:20.256,1.584048,1.712302,1.725303,1.699802
2020-11-15 22:12:20.273,1.584048,1.709177,1.721553,1.700802
2020-11-15 22:12:20.290,1.585048,1.700177,1.721303,1.701177
2020-11-15 22:12:20.308,1.584423,1.705177,1.713802,1.700802
2020-11-15 22:12:20.325,1.588298,1.706802,1.711677,1.700552
2020-11-15 22:12:20.342,1.585673,1.714802,1.714552,1.698802
2020-11-15 22:12:20.359,1.586173,1.712802,1.716177,1.699302
2020-11-15 22:12:20.376,1.586048,1.713177,1.726803,1.699927
2020-11-15 22:12:20.393,1.584673,1.707927,1.720553,1.701802
2020-11-15 22:12:20.410,1.584173,1.700802,1.719802,1.700927
2020-11-15 22:12:20.427,1.584923,1.705552,1.709177,1.700552
2020-11-15 22:12:20.444,1.584548,1.708177,1.714677,1.699552
2020-11-15 22:12:20.461,1.586548,1.716177,1.714927,1.699177
2020-11-15 22:12:20.478,1.585298,1.712802,1.724553,1.699552
2020-11-15 22:12:20.495,1.586048,1.712052,1.721803,1.699552
2020-11-15 22:12:20.512,1.584548,1.705427,1.721053,1.701052
2020-11-15 22:12:20.529,1.584298,1.703302,1.717427,1.700552
2020-11-15 22:12:20.546,1.586923,1.705302,1.708802,1.699927
2020-11-15 22:12:20.563,1.585548,1.708302,1.714302,1.699177
2020-11-15 22:12:20.580,1.586173,1.717427,1.716552,1.699302
2020-11-15 22:12:20.597,1.585548,1.711427,1.720553,1.699302
2020-11-15 22:12:20.616,1.585548,1.711927,1.724928,1.698677
2020-11-15 22:12:20.633,1.584048,1.707802,1.721178,1.700677
2020-11-15 22:12:20.650,1.584048,1.700177,1.718552,1.699927
2020-11-15 22:12:20.667,1.585173,1.704802,1.709177,1.700677
2020-11-15 22:12:20.684,1.585173,1.709302,1.713927,1.699177
2020-11-15 22:12:20.701,1.585798,1.718052,1.714552,1.699052
2020-11-15 22:12:20.718,1.584923,1.712052,1.722053,1.699927
2020-11-15 22:12:20.735,1.585423,1.711302,1.721803,1.700177
2020-11-15 22:12:20.752,1.585548,1.701677,1.720803,1.701052
2020-11-15 22:12:20.769,1.584048,1.704302,1.717552,1.700927
2020-11-15 22:12:20.786,1.586048,1.705802,1.707927,1.700052
2020-11-15 22:12:20.803,1.585548,1.711802,1.714177,1.699177
2020-11-15 22:12:20.820,1.587673,1.715052,1.716302,1.699552
2020-11-15 22:12:20.837,1.584423,1.712177,1.724428,1.699177
2020-11-15 22:12:20.854,1.585173,1.709552,1.721803,1.701302
2020-11-15 22:12:20.871,1.583923,1.701177,1.720928,1.701052
2020-11-15 22:12:20.889,1.584798,1.705302,1.715927,1.700802
2020-11-15 22:12:20.906,1.586673,1.705302,1.710052,1.700552
2020-11-15 22:12:20.923,1.586548,1.714052,1.714302,1.699302
2020-11-15 22:12:20.940,1.585548,1.712677,1.716052,1.699677
2020-11-15 22:12:20.957,1.584923,1.711427,1.724803,1.699552
2020-11-15 22:12:20.974,1.584173,1.709052,1.721053,1.701427
2020-11-15 22:12:20.991,1.584548,1.700552,1.718552,1.700427
2020-11-15 22:12:21.008,1.587048,1.705427,1.709927,1.700927
2020-11-15 22:12:21.025,1.585923,1.706302,1.714552,1.700052
2020-11-15 22:12:21.042,1.585548,1.715177,1.714427,1.699052
2020-11-15 22:12:21.059,1.585423,1.712552,1.721803,1.699427
2020-11-15 22:12:21.076,1.584798,1.711802,1.722928,1.699177
2020-11-15 22:12:21.093,1.584798,1.706677,1.721178,1.701177
2020-11-15 22:12:21.110,1.585423,1.700677,1.718677,1.700052
2020-11-15 22:12:21.127,1.585048,1.705177,1.708427,1.699552
2020-11-15 22:12:21.144,1.585673,1.707802,1.714177,1.699052
2020-11-15 22:12:21.161,1.585173,1.716552,1.715177,1.698927
2020-11-15 22:12:21.178,1.585423,1.712302,1.723303,1.699427
2020-11-15 22:12:21.195,1.583798,1.709802,1.721178,1.700677
2020-11-15 22:12:21.212,1.584423,1.701677,1.720678,1.701052
2020-11-15 22:12:21.229,1.583673,1.705177,1.716677,1.700052
2020-11-15 22:12:21.246,1.586173,1.706052,1.708802,1.699802
2020-11-15 22:12:21.263,1.585673,1.712802,1.715052,1.698802
2020-11-15 22:12:21.280,1.585173,1.713927,1.715052,1.699552
2020-11-15 22:12:21.297,1.583048,1.712177,1.725303,1.700177
2020-11-15 22:12:21.314,1.584923,1.708927,1.720678,1.700802
2020-11-15 22:12:21.331,1.583548,1.699927,1.719302,1.700927
2020-11-15 22:12:21.348,1.584673,1.705427,1.710677,1.700677
2020-11-15 22:12:21.365,1.586548,1.706427,1.714177,1.699802
2020-11-15 22:12:21.383,1.586298,1.714177,1.713552,1.698427
2020-11-15 22:12:21.400,1.584923,1.712427,1.721178,1.699302
2020-11-15 22:12:21.417,1.585548,1.711677,1.723928,1.698427
2020-11-15 22:12:21.435,1.584298,1.710177,1.721178,1.700552
2020-11-15 22:12:21.452,1.585423,1.701802,1.720803,1.700802
2020-11-15 22:12:21.469,1.585048,1.704677,1.712052,1.700052
2020-11-15 22:12:21.486,1.587548,1.705427,1.713927,1.700552
2020-11-15 22:12:21.503,1.584798,1.711677,1.714802,1.698177
2020-11-15 22:12:21.520,1.585923,1.714552,1.717677,1.699052
2020-11-15 22:12:21.537,1.585673,1.711677,1.727428,1.699177
2020-11-15 22:12:21.554,1.584923,1.708802,1.720928,1.699427
2020-11-15 22:12:21.571,1.584048,1.700302,1.719927,1.700427
2020-11-15 22:12:21.588,1.585298,1.705177,1.710677,1.700927
2020-11-15 22:12:21.605,1.586173,1.708052,1.713802,1.699427
2020-11-15 22:12:21.622,1.585798,1.717302,1.714302,1.699427
2020-11-15 22:12:21.639,1.585298,1.712802,1.719927,1.699927
2020-11-15 22:12:21.656,1.584673,1.711802,1.725303,1.699552
2020-11-15 22:12:21.673,1.584923,1.703927,1.720428,1.701677
2020-11-15 22:12:21.690,1.584548,1.705052,1.718427,1.701052
2020-11-15 22:12:21.708,1.585548,1.705802,1.709302,1.700552
2020-11-15 22:12:21.724,1.585798,1.709177,1.713177,1.699677
2020-11-15 22:12:21.742,1.585673,1.717552,1.714052,1.699302
2020-11-15 22:12:21.759,1.585173,1.712302,1.721803,1.700052
2020-11-15 22:12:21.776,1.585298,1.710927,1.722178,1.700927
2020-11-15 22:12:21.793,1.585048,1.702677,1.720803,1.701802
2020-11-15 22:12:21.810,1.584923,1.705052,1.717177,1.700052
2020-11-15 22:12:21.827,1.585923,1.705927,1.708427,1.700552
2020-11-15 22:12:21.844,1.585923,1.709677,1.714302,1.699177
2020-11-15 22:12:21.861,1.584798,1.715802,1.714552,1.699552
2020-11-15 22:12:21.878,1.584798,1.712302,1.727303,1.699427
2020-11-15 22:12:21.895,1.585548,1.709927,1.721428,1.700552
2020-11-15 22:12:21.912,1.585798,1.700927,1.720302,1.700802
2020-11-15 22:12:21.929,1.584673,1.704927,1.711302,1.700177
2020-11-15 22:12:21.946,1.587048,1.705552,1.714302,1.699802
2020-11-15 22:12:21.963,1.586048,1.712302,1.714427,1.698802
2020-11-15 22:12:21.980,1.585923,1.713052,1.718927,1.699552
2020-11-15 22:12:21.997,1.584798,1.711677,1.726178,1.699552
2020-11-15 22:12:22.014,1.586048,1.708802,1.720928,1.700302
2020-11-15 22:12:22.032,1.584673,1.699427,1.719552,1.700302
2020-11-15 22:12:22.049,1.585423,1.704427,1.710052,1.700552
2020-11-15 22:12:22.066,1.586923,1.706052,1.713552,1.699177
2020-11-15 22:12:22.083,1.585673,1.717927,1.714802,1.700052
2020-11-15 22:12:22.100,1.585423,1.712052,1.721178,1.699802
2020-11-15 22:12:22.117,1.585923,1.710927,1.723678,1.699927
2020-11-15 22:12:22.134,1.585798,1.702927,1.720803,1.701927
2020-11-15 22:12:22.151,1.585173,1.704927,1.717802,1.700302
2020-11-15 22:12:22.168,1.585673,1.705802,1.708552,1.699927
2020-11-15 22:12:22.185,1.586173,1.709302,1.714052,1.699177
2020-11-15 22:12:22.202,1.585048,1.717177,1.714302,1.699552
2020-11-15 22:12:22.219,1.584548,1.712302,1.722928,1.699552
2020-11-15 22:12:22.236,1.584548,1.710677,1.721053,1.699927
2020-11-15 22:12:22.253,1.583923,1.704802,1.721428,1.701677
2020-11-15 22:12:22.271,1.584673,1.702427,1.719427,1.700552
2020-11-15 22:12:22.288,1.584173,1.705052,1.708177,1.700552
2020-11-15 22:12:22.305,1.585298,1.707677,1.714552,1.699677
2020-11-15 22:12:22.322,1.585548,1.717177,1.716177,1.699052
2020-11-15 22:12:22.339,1.584423,1.712802,1.724803,1.699052
2020-11-15 22:12:22.356,1.585298,1.711302,1.721928,1.699302
2020-11-15 22:12:22.373,1.584173,1.703302,1.721178,1.701302
2020-11-15 22:12:22.390,1.585423,1.704802,1.715552,1.700302
2020-11-15 22:12:22.408,1.586048,1.705427,1.709677,1.699052
2020-11-15 22:12:22.425,1.584923,1.708677,1.714552,1.699052
2020-11-15 22:12:22.442,1.584548,1.713302,1.716552,1.699552
2020-11-15 22:12:22.459,1.584173,1.712177,1.725553,1.699677
2020-11-15 22:12:22.476,1.584673,1.708302,1.721803,1.701052
2020-11-15 22:12:22.493,1.584923,1.699552,1.721428,1.700802
2020-11-15 22:12:22.510,1.585173,1.705552,1.713802,1.700552
2020-11-15 22:12:22.527,1.587173,1.706802,1.712927,1.699427
2020-11-15 22:12:22.544,1.585548,1.715802,1.714302,1.698927
2020-11-15 22:12:22.561,1.585423,1.712927,1.716177,1.700052
2020-11-15 22:12:22.578,1.583923,1.711552,1.726678,1.699552
2020-11-15 22:12:22.595,1.584423,1.707052,1.721428,1.701177
2020-11-15 22:12:22.612,1.585048,1.702177,1.717927,1.700052
2020-11-15 22:12:22.629,1.585548,1.705677,1.708427,1.700552
2020-11-15 22:12:22.646,1.585173,1.708177,1.714552,1.699177
2020-11-15 22:12:22.663,1.584048,1.716177,1.714802,1.699052
2020-11-15 22:12:22.680,1.585048,1.712677,1.723928,1.698927
2020-11-15 22:12:22.697,1.584673,1.711802,1.722053,1.699677
2020-11-15 22:12:22.714,1.584548,1.704427,1.720928,1.700677
2020-11-15 22:12:22.731,1.585673,1.702927,1.717052,1.700427
2020-11-15 22:12:22.748,1.587673,1.705802,1.709302,1.700177
2020-11-15 22:12:22.765,1.585548,1.712677,1.714302,1.698927
2020-11-15 22:12:22.782,1.585798,1.713552,1.716052,1.699927
2020-11-15 22:12:22.799,1.586423,1.712427,1.725553,1.699052
2020-11-15 22:12:22.816,1.585423,1.708927,1.721803,1.700427
2020-11-15 22:12:22.833,1.585048,1.700177,1.720928,1.700552
2020-11-15 22:12:22.850,1.584673,1.705677,1.713927,1.700427
2020-11-15 22:12:22.867,1.586048,1.706552,1.711052,1.700302
2020-11-15 22:12:22.884,1.585423,1.714802,1.713802,1.699177
2020-11-15 22:12:22.901,1.585048,1.713052,1.720678,1.699802
2020-11-15 22:12:22.918,1.585673,1.712177,1.724053,1.699552
2020-11-15 22:12:22.935,1.585423,1.708177,1.720928,1.701302
2020-11-15 22:12:22.952,1.585173,1.700427,1.718302,1.700302
2020-11-15 22:12:22.969,1.586298,1.705427,1.708802,1.700177
2020-11-15 22:12:22.986,1.586173,1.706927,1.713802,1.699927
2020-11-15 22:12:23.003,1.585923,1.715427,1.715052,1.698802
2020-11-15 22:12:23.020,1.583673,1.712177,1.723053,1.699052
2020-11-15 22:12:23.037,1.585173,1.711177,1.721553,1.699302
2020-11-15 22:12:23.054,1.584173,1.701177,1.721803,1.701052
2020-11-15 22:12:23.071,1.583923,1.704677,1.717052,1.700802
2020-11-15 22:12:23.090,1.583923,1.704677,1.710302,1.700677
2020-11-15 22:12:23.107,1.585548,1.708677,1.714052,1.699802
2020-11-15 22:12:23.124,1.585923,1.717677,1.714427,1.699177
2020-11-15 22:12:23.141,1.584673,1.711927,1.719427,1.698927
2020-11-15 22:12:23.158,1.586048,1.711302,1.724928,1.700302
2020-11-15 22:12:23.175,1.584048,1.703802,1.720553,1.701552
2020-11-15 22:12:23.192,1.584673,1.705302,1.718552,1.700802
2020-11-15 22:12:23.209,1.585423,1.705802,1.710802,1.700677
2020-11-15 22:12:23.226,1.585423,1.709177,1.714677,1.699177
2020-11-15 22:12:23.243,1.586048,1.718177,1.716677,1.698802
2020-11-15 22:12:23.260,1.585798,1.712302,1.725928,1.699677
2020-11-15 22:12:23.277,1.585423,1.711177,1.722178,1.699802
2020-11-15 22:12:23.294,1.584298,1.701927,1.721303,1.700802
2020-11-15 22:12:23.311,1.583173,1.703927,1.713552,1.699927
2020-11-15 22:12:23.328,1.587923,1.705052,1.713427,1.700177
2020-11-15 22:12:23.345,1.585298,1.710052,1.714927,1.699177
2020-11-15 22:12:23.362,1.586423,1.712802,1.717927,1.699427
2020-11-15 22:12:23.379,1.585173,1.712427,1.727303,1.699802
2020-11-15 22:12:23.396,1.584798,1.706802,1.721053,1.701427
2020-11-15 22:12:23.413,1.584423,1.701927,1.719927,1.700802
2020-11-15 22:12:23.430,1.585173,1.705302,1.710677,1.699927
2020-11-15 22:12:23.447,1.588423,1.708302,1.713677,1.700052
2020-11-15 22:12:23.464,1.584548,1.717177,1.714802,1.699802
2020-11-15 22:12:23.481,1.584548,1.712677,1.718677,1.699802
2020-11-15 22:12:23.498,1.584548,1.711927,1.725553,1.699927
2020-11-15 22:12:23.515,1.583548,1.704552,1.720678,1.701427
2020-11-15 22:12:23.532,1.584298,1.704427,1.716927,1.700802
2020-11-15 22:12:23.549,1.586548,1.705927,1.709677,1.700427
2020-11-15 22:12:23.566,1.586298,1.708427,1.714302,1.699052
2020-11-15 22:12:23.583,1.585423,1.717927,1.716052,1.698802
2020-11-15 22:12:23.600,1.585048,1.712302,1.725803,1.699552
2020-11-15 22:12:23.617,1.585298,1.710802,1.721678,1.699677
2020-11-15 22:12:23.634,1.583048,1.702177,1.721178,1.701052
2020-11-15 22:12:23.651,1.585798,1.704552,1.715177,1.699927
2020-11-15 22:12:23.668,1.586548,1.705302,1.711802,1.700302
2020-11-15 22:12:23.685,1.585548,1.714802,1.714177,1.698677
2020-11-15 22:12:23.702,1.585548,1.713427,1.717427,1.699677
2020-11-15 22:12:23.719,1.585048,1.712177,1.726303,1.699927
2020-11-15 22:12:23.736,1.584173,1.708052,1.721053,1.701427
2020-11-15 22:12:23.753,1.584798,1.700677,1.720177,1.700802
2020-11-15 22:12:23.771,1.583923,1.705802,1.711927,1.700177
2020-11-15 22:12:23.788,1.587673,1.707552,1.713427,1.699927
2020-11-15 22:12:23.805,1.584673,1.716552,1.713802,1.699177
2020-11-15 22:12:23.822,1.585423,1.712802,1.717552,1.699552
2020-11-15 22:12:23.839,1.584923,1.712427,1.721803,1.699677
2020-11-15 22:12:23.856,1.585173,1.706052,1.721678,1.701427
2020-11-15 22:12:23.873,1.582923,1.702552,1.717552,1.700552
2020-11-15 22:12:23.890,1.585423,1.705677,1.708427,1.700427
2020-11-15 22:12:23.907,1.585923,1.704552,1.713302,1.699927
2020-11-15 22:12:23.925,1.585423,1.713927,1.714552,1.699177
2020-11-15 22:12:23.942,1.585548,1.713302,1.720553,1.699552
2020-11-15 22:12:23.959,1.585173,1.711677,1.725053,1.700052
2020-11-15 22:12:23.976,1.583923,1.708052,1.720928,1.701052
2020-11-15 22:12:23.993,1.585173,1.699052,1.718052,1.700802
2020-11-15 22:12:24.010,1.585423,1.705552,1.710052,1.700052
2020-11-15 22:12:24.027,1.585048,1.705927,1.714927,1.699802
2020-11-15 22:12:24.045,1.585923,1.715927,1.714802,1.698802
2020-11-15 22:12:24.062,1.584548,1.712927,1.722303,1.699552
2020-11-15 22:12:24.079,1.586423,1.712552,1.722303,1.700302
2020-11-15 22:12:24.096,1.584298,1.706427,1.721553,1.701427
2020-11-15 22:12:24.113,1.585923,1.701927,1.717927,1.700427
2020-11-15 22:12:24.130,1.585173,1.705302,1.708802,1.700302
2020-11-15 22:12:24.147,1.586673,1.707177,1.714427,1.699302
2020-11-15 22:12:24.164,1.585173,1.715927,1.715427,1.698927
2020-11-15 22:12:24.181,1.585048,1.712677,1.724803,1.699177
2020-11-15 22:12:24.198,1.585673,1.711677,1.722803,1.700177
2020-11-15 22:12:24.215,1.584548,1.704427,1.720928,1.700552
2020-11-15 22:12:24.232,1.583923,1.703802,1.717052,1.700427
2020-11-15 22:12:24.249,1.586798,1.705177,1.709927,1.700177
2020-11-15 22:12:24.266,1.586048,1.713302,1.714677,1.699427
2020-11-15 22:12:24.283,1.585048,1.713052,1.716677,1.699802
2020-11-15 22:12:24.300,1.584298,1.711927,1.725553,1.699802
2020-11-15 22:12:24.318,1.585298,1.709052,1.722053,1.701677
2020-11-15 22:12:24.335,1.584298,1.700427,1.720302,1.700927
2020-11-15 22:12:24.352,1.583673,1.705552,1.714302,1.700927
2020-11-15 22:12:24.369,1.587173,1.706677,1.711677,1.700177
2020-11-15 22:12:24.386,1.586298,1.715052,1.714552,1.699177
2020-11-15 22:12:24.403,1.585173,1.712427,1.717052,1.700052
2020-11-15 22:12:24.420,1.584298,1.712052,1.725928,1.699427
2020-11-15 22:12:24.437,1.584423,1.708177,1.721803,1.701302
2020-11-15 22:12:24.454,1.585673,1.700927,1.718302,1.700052
2020-11-15 22:12:24.471,1.586048,1.705927,1.709052,1.700427
2020-11-15 22:12:24.488,1.586173,1.707302,1.714552,1.699302
2020-11-15 22:12:24.505,1.585048,1.716177,1.714677,1.699052
2020-11-15 22:12:24.522,1.585798,1.712802,1.723803,1.699427
2020-11-15 22:12:24.539,1.585173,1.712052,1.721803,1.699927
2020-11-15 22:12:24.556,1.583673,1.705427,1.721303,1.700427
2020-11-15 22:12:24.573,1.585423,1.702302,1.717177,1.700052
2020-11-15 22:12:24.590,1.586048,1.704802,1.708677,1.700052
2020-11-15 22:12:24.607,1.584923,1.707927,1.714552,1.699427
2020-11-15 22:12:24.624,1.585798,1.716677,1.715927,1.699177
2020-11-15 22:12:24.641,1.585423,1.712052,1.725303,1.699677
2020-11-15 22:12:24.658,1.585298,1.709677,1.721803,1.700552
2020-11-15 22:12:24.675,1.584548,1.701302,1.721053,1.700802
2020-11-15 22:12:24.692,1.584673,1.705427,1.715427,1.701052
2020-11-15 22:12:24.709,1.586173,1.706177,1.710427,1.700052
2020-11-15 22:12:24.726,1.585673,1.713927,1.714052,1.698552
2020-11-15 22:12:24.745,1.584548,1.718177,1.714052,1.699427
2020-11-15 22:12:24.762,1.585173,1.712052,1.721303,1.699552
2020-11-15 22:12:24.779,1.586673,1.710802,1.722053,1.701052
2020-11-15 22:12:24.796,1.584423,1.702302,1.720553,1.701552
2020-11-15 22:12:24.813,1.583923,1.704677,1.713177,1.700802
2020-11-15 22:12:24.830,1.586423,1.706052,1.713552,1.700427
2020-11-15 22:12:24.847,1.585798,1.710552,1.714427,1.699302
2020-11-15 22:12:24.864,1.584923,1.715302,1.718177,1.699052
2020-11-15 22:12:24.881,1.585048,1.711927,1.726678,1.699427
2020-11-15 22:12:24.898,1.583548,1.709302,1.722053,1.700677
2020-11-15 22:12:24.915,1.584923,1.700302,1.720302,1.700427
2020-11-15 22:12:24.932,1.585048,1.705302,1.711677,1.700427
2020-11-15 22:12:24.949,1.586923,1.705677,1.713677,1.699677
2020-11-15 22:12:24.966,1.586923,1.712927,1.714927,1.698052
2020-11-15 22:12:24.983,1.585423,1.712302,1.719677,1.699177
2020-11-15 22:12:25.000,1.585173,1.712177,1.726428,1.699552
2020-11-15 22:12:25.017,1.584048,1.708177,1.721428,1.700177
2020-11-15 22:12:25.034,1.584173,1.700177,1.719177,1.700802
2020-11-15 22:12:25.051,1.585673,1.705052,1.710177,1.700552
2020-11-15 22:12:25.068,1.585423,1.709052,1.713802,1.699427
2020-11-15 22:12:25.085,1.585798,1.718052,1.714552,1.699427
2020-11-15 22:12:25.102,1.584923,1.712427,1.720928,1.700052
2020-11-15 22:12:25.119,1.584548,1.711677,1.723053,1.700177
2020-11-15 22:12:25.137,1.585298,1.703302,1.720553,1.701802
2020-11-15 22:12:25.154,1.584298,1.704552,1.718052,1.700302
2020-11-15 22:12:25.171,1.585673,1.705927,1.708302,1.700177
2020-11-15 22:12:25.188,1.585423,1.710302,1.713427,1.699427
2020-11-15 22:12:25.205,1.586048,1.717427,1.714802,1.699927
2020-11-15 22:12:25.222,1.583548,1.711927,1.723053,1.699927
2020-11-15 22:12:25.239,1.585423,1.710552,1.721303,1.700302
2020-11-15 22:12:25.256,1.584298,1.702177,1.720553,1.701177
2020-11-15 22:12:25.273,1.583923,1.705052,1.717052,1.700802
2020-11-15 22:12:25.290,1.585673,1.705302,1.707677,1.698802
2020-11-15 22:12:25.307,1.584923,1.711552,1.713927,1.699177
2020-11-15 22:12:25.324,1.585298,1.714552,1.715552,1.699427
2020-11-15 22:12:25.342,1.585048,1.711927,1.724428,1.699677
2020-11-15 22:12:25.359,1.585798,1.709677,1.721428,1.700177
2020-11-15 22:12:25.376,1.585173,1.700802,1.720678,1.700552
2020-11-15 22:12:25.393,1.583923,1.704927,1.714677,1.700677
2020-11-15 22:12:25.410,1.585798,1.706302,1.713552,1.700302
2020-11-15 22:12:25.427,1.585048,1.714677,1.714552,1.699552
2020-11-15 22:12:25.444,1.584923,1.712802,1.720302,1.699552
2020-11-15 22:12:25.461,1.585173,1.711927,1.724678,1.699552
2020-11-15 22:12:25.478,1.583923,1.708302,1.721178,1.700427
2020-11-15 22:12:25.495,1.584173,1.700052,1.718802,1.700552
2020-11-15 22:12:25.512,1.585548,1.705177,1.709552,1.700677
2020-11-15 22:12:25.529,1.585423,1.706927,1.713802,1.699552
2020-11-15 22:12:25.546,1.584923,1.715552,1.714802,1.698927
2020-11-15 22:12:25.563,1.584923,1.715177,1.718052,1.699302
2020-11-15 22:12:25.581,1.585923,1.712427,1.726928,1.698927
2020-11-15 22:12:25.599,1.584673,1.709927,1.721678,1.699927
2020-11-15 22:12:25.616,1.584173,1.701052,1.720428,1.700177
2020-11-15 22:12:25.633,1.584673,1.704552,1.711552,1.699802
2020-11-15 22:12:25.650,1.587423,1.705552,1.713552,1.699427
2020-11-15 22:12:25.667,1.585798,1.712927,1.714802,1.699677
2020-11-15 22:12:25.684,1.584548,1.712677,1.719427,1.699802
2020-11-15 22:12:25.701,1.584548,1.712427,1.726428,1.700302
2020-11-15 22:12:25.718,1.584798,1.704677,1.721303,1.701427
2020-11-15 22:12:25.735,1.584173,1.705052,1.718677,1.699802
2020-11-15 22:12:25.752,1.585923,1.705427,1.709552,1.699927
2020-11-15 22:12:25.769,1.586923,1.708802,1.713552,1.699177
2020-11-15 22:12:25.786,1.585298,1.717677,1.714302,1.699552
2020-11-15 22:12:25.803,1.583548,1.712052,1.720553,1.699677
2020-11-15 22:12:25.820,1.584923,1.710927,1.722803,1.700677
2020-11-15 22:12:25.837,1.584048,1.702677,1.720803,1.701677
2020-11-15 22:12:25.854,1.585298,1.704427,1.714052,1.700052
2020-11-15 22:12:25.871,1.586673,1.705427,1.712552,1.700052
2020-11-15 22:12:25.888,1.585298,1.710677,1.714802,1.698427
2020-11-15 22:12:25.905,1.584548,1.716052,1.717677,1.699427
2020-11-15 22:12:25.922,1.584923,1.711677,1.727053,1.699177
2020-11-15 22:12:25.939,1.584298,1.710177,1.721428,1.699927
2020-11-15 22:12:25.956,1.585048,1.701052,1.720052,1.700427
2020-11-15 22:12:25.973,1.584923,1.704177,1.711927,1.699802
2020-11-15 22:12:25.990,1.586548,1.705302,1.714302,1.700302
2020-11-15 22:12:26.007,1.584673,1.717302,1.714427,1.698552
2020-11-15 22:12:26.024,1.583798,1.712927,1.718427,1.700052
2020-11-15 22:12:26.041,1.585673,1.712427,1.727803,1.699302
2020-11-15 22:12:26.058,1.585048,1.705552,1.720803,1.701677
2020-11-15 22:12:26.075,1.582298,1.703552,1.718927,1.700552
2020-11-15 22:12:26.092,1.584673,1.705802,1.710177,1.700927
2020-11-15 22:12:26.109,1.585298,1.708552,1.713302,1.699927
2020-11-15 22:12:26.126,1.584298,1.717677,1.714552,1.699677
2020-11-15 22:12:26.143,1.585673,1.712677,1.720553,1.699802
2020-11-15 22:12:26.160,1.584923,1.711552,1.723928,1.699802
2020-11-15 22:12:26.178,1.584298,1.702927,1.720428,1.701927
2020-11-15 22:12:26.195,1.586048,1.705302,1.715302,1.701052
2020-11-15 22:12:26.212,1.586173,1.706052,1.711052,1.700177
2020-11-15 22:12:26.229,1.586048,1.709302,1.714427,1.699302
2020-11-15 22:12:26.246,1.585173,1.717677,1.717552,1.698927
2020-11-15 22:12:26.263,1.584173,1.712302,1.727053,1.698927
2020-11-15 22:12:26.280,1.585048,1.710052,1.721303,1.700177
2020-11-15 22:12:26.297,1.583673,1.701302,1.720928,1.700427
2020-11-15 22:12:26.314,1.584673,1.704177,1.713052,1.699552
2020-11-15 22:12:26.331,1.586923,1.704927,1.713927,1.699927
2020-11-15 22:12:26.348,1.584673,1.711927,1.715052,1.699052
2020-11-15 22:12:26.365,1.584673,1.715552,1.718177,1.698927
2020-11-15 22:12:26.382,1.584923,1.711677,1.727928,1.698302
2020-11-15 22:12:26.400,1.585673,1.711802,1.722053,1.699677
2020-11-15 22:12:26.418,1.585048,1.704052,1.720678,1.702052
2020-11-15 22:12:26.435,1.584798,1.704677,1.716677,1.700802
2020-11-15 22:12:26.452,1.586048,1.705177,1.710427,1.699802
2020-11-15 22:12:26.469,1.585923,1.708427,1.715052,1.698802
2020-11-15 22:12:26.486,1.584798,1.717302,1.716552,1.699927
2020-11-15 22:12:26.503,1.585173,1.712052,1.724803,1.699552
2020-11-15 22:12:26.520,1.584923,1.709677,1.721803,1.701052
2020-11-15 22:12:26.537,1.583798,1.700427,1.720553,1.700802
2020-11-15 22:12:26.554,1.585548,1.705677,1.713427,1.700552
2020-11-15 22:12:26.571,1.587048,1.706677,1.712302,1.700302
2020-11-15 22:12:26.588,1.585673,1.715427,1.713802,1.699427
2020-11-15 22:12:26.605,1.584923,1.712302,1.717177,1.699427
2020-11-15 22:12:26.622,1.584798,1.712302,1.726178,1.699177
2020-11-15 22:12:26.639,1.584423,1.707302,1.721053,1.701927
2020-11-15 22:12:26.656,1.584798,1.701677,1.718427,1.701177
2020-11-15 22:12:26.673,1.585798,1.705677,1.708802,1.700677
2020-11-15 22:12:26.690,1.585548,1.707052,1.714552,1.699302
2020-11-15 22:12:26.707,1.585298,1.716052,1.715052,1.699052
2020-11-15 22:12:26.724,1.583298,1.712302,1.724428,1.700052
2020-11-15 22:12:26.741,1.586923,1.711677,1.722053,1.699677
2020-11-15 22:12:26.758,1.584923,1.704802,1.720928,1.700302
2020-11-15 22:12:26.775,1.584673,1.703427,1.717302,1.700177
2020-11-15 22:12:26.792,1.586548,1.705927,1.709302,1.700302
2020-11-15 22:12:26.809,1.585548,1.712802,1.714802,1.699177
2020-11-15 22:12:26.826,1.584923,1.713177,1.716052,1.699302
2020-11-15 22:12:26.843,1.584673,1.712052,1.725553,1.699802
2020-11-15 22:12:26.860,1.584798,1.709302,1.721803,1.700802
2020-11-15 22:12:26.877,1.584423,1.699927,1.720803,1.700677
2020-11-15 22:12:26.894,1.584298,1.706052,1.714552,1.700427
2020-11-15 22:12:26.911,1.586423,1.706552,1.710677,1.700552
2020-11-15 22:12:26.928,1.585048,1.714802,1.713802,1.699302
2020-11-15 22:12:26.945,1.585798,1.713427,1.716552,1.699552
2020-11-15 22:12:26.962,1.585173,1.711802,1.724178,1.699427
2020-11-15 22:12:26.979,1.584548,1.708302,1.721678,1.700927
2020-11-15 22:12:26.996,1.585048,1.700677,1.718552,1.700677
2020-11-15 22:12:27.013,1.586423,1.705052,1.709552,1.700802
2020-11-15 22:12:27.030,1.587173,1.707302,1.714052,1.699552
2020-11-15 22:12:27.047,1.585173,1.716552,1.715552,1.699052
2020-11-15 22:12:27.064,1.586048,1.712927,1.722678,1.699802
2020-11-15 22:12:27.081,1.585048,1.711427,1.722053,1.699802
2020-11-15 22:12:27.099,1.585673,1.706052,1.721553,1.701302
2020-11-15 22:12:27.116,1.584048,1.704927,1.718052,1.700552
2020-11-15 22:12:27.133,1.586548,1.706427,1.708427,1.700552
2020-11-15 22:12:27.150,1.585423,1.712052,1.714802,1.699677
2020-11-15 22:12:27.167,1.586298,1.715177,1.715802,1.700052
2020-11-15 22:12:27.184,1.584673,1.712427,1.724928,1.699552
2020-11-15 22:12:27.201,1.584798,1.710177,1.722053,1.700552
2020-11-15 22:12:27.218,1.583548,1.702802,1.720678,1.702427
2020-11-15 22:12:27.236,1.584173,1.705427,1.718052,1.700552
2020-11-15 22:12:27.253,1.584798,1.705552,1.709677,1.700927
2020-11-15 22:12:27.270,1.585673,1.709427,1.714677,1.699052
2020-11-15 22:12:27.287,1.585048,1.718052,1.717052,1.699427
2020-11-15 22:12:27.304,1.585548,1.711927,1.726053,1.699677
2020-11-15 22:12:27.321,1.584298,1.710677,1.721803,1.699927
2020-11-15 22:12:27.338,1.585673,1.702302,1.721928,1.701552
2020-11-15 22:12:27.355,1.585048,1.703802,1.713802,1.700052
2020-11-15 22:12:27.372,1.586423,1.705052,1.713677,1.700052
2020-11-15 22:12:27.389,1.585923,1.710927,1.715177,1.698302
2020-11-15 22:12:27.406,1.585923,1.715677,1.717802,1.698927
2020-11-15 22:12:27.423,1.584798,1.711552,1.727428,1.699927
2020-11-15 22:12:27.440,1.584923,1.706802,1.721428,1.701177
2020-11-15 22:12:27.457,1.584173,1.702302,1.719552,1.700552
2020-11-15 22:12:27.474,1.583423,1.705802,1.711552,1.700552
2020-11-15 22:12:27.491,1.588048,1.708302,1.713677,1.699427
2020-11-15 22:12:27.508,1.585673,1.717427,1.714427,1.699177
2020-11-15 22:12:27.525,1.584798,1.712802,1.717927,1.699302
2020-11-15 22:12:27.542,1.583798,1.713052,1.726178,1.699427
2020-11-15 22:12:27.559,1.584048,1.705302,1.720428,1.701552
2020-11-15 22:12:27.576,1.583298,1.704677,1.718927,1.700677
2020-11-15 22:12:27.593,1.584423,1.705302,1.709677,1.700177
2020-11-15 22:12:27.610,1.584923,1.709052,1.714552,1.699677
2020-11-15 22:12:27.628,1.584548,1.717927,1.716427,1.699552
2020-11-15 22:12:27.645,1.584423,1.712177,1.725803,1.699927
2020-11-15 22:12:27.662,1.583173,1.711552,1.722053,1.700052
2020-11-15 22:12:27.679,1.584548,1.702552,1.720803,1.701052
2020-11-15 22:12:27.696,1.583798,1.704927,1.714552,1.700552
2020-11-15 22:12:27.713,1.587048,1.704802,1.712302,1.699802
2020-11-15 22:12:27.730,1.584923,1.709177,1.714552,1.698927
2020-11-15 22:12:27.747,1.584923,1.712927,1.717552,1.699052
2020-11-15 22:12:27.764,1.583673,1.711802,1.727303,1.700052
2020-11-15 22:12:27.781,1.585173,1.707677,1.721553,1.701427
2020-11-15 22:12:27.798,1.583673,1.700927,1.720052,1.700677
2020-11-15 22:12:27.815,1.584798,1.705802,1.711802,1.700802
2020-11-15 22:12:27.832,1.587923,1.707302,1.713177,1.699677
2020-11-15 22:12:27.849,1.585798,1.717052,1.713802,1.699427
2020-11-15 22:12:27.866,1.584298,1.713177,1.718052,1.700177
2020-11-15 22:12:27.883,1.582923,1.712052,1.726178,1.700177
2020-11-15 22:12:27.900,1.584423,1.705927,1.721303,1.701177
2020-11-15 22:12:27.917,1.584298,1.703552,1.717552,1.700052
2020-11-15 22:12:27.934,1.586048,1.705427,1.708927,1.700302
2020-11-15 22:12:27.951,1.586298,1.708302,1.714177,1.699677
2020-11-15 22:12:27.968,1.584923,1.716802,1.716052,1.698927
2020-11-15 22:12:27.985,1.583798,1.712302,1.725053,1.699052
2020-11-15 22:12:28.002,1.585923,1.710677,1.721428,1.699677
2020-11-15 22:12:28.019,1.584673,1.702802,1.721678,1.701052
2020-11-15 22:12:28.036,1.584423,1.705302,1.715677,1.700177
2020-11-15 22:12:28.054,1.586548,1.705802,1.709177,1.700052
2020-11-15 22:12:28.071,1.585173,1.709052,1.713802,1.699802
2020-11-15 22:12:28.088,1.586673,1.717802,1.714677,1.699552
2020-11-15 22:12:28.105,1.584798,1.712052,1.723053,1.699677
2020-11-15 22:12:28.122,1.585298,1.711302,1.721553,1.700552
2020-11-15 22:12:28.139,1.584548,1.702802,1.720803,1.701052
2020-11-15 22:12:28.156,1.583798,1.705177,1.717052,1.700552
2020-11-15 22:12:28.173,1.585673,1.706302,1.707677,1.700177
2020-11-15 22:12:28.190,1.585923,1.711677,1.713802,1.699552
2020-11-15 22:12:28.207,1.584548,1.715552,1.717927,1.699302
2020-11-15 22:12:28.224,1.584923,1.712552,1.727303,1.699802
2020-11-15 22:12:28.241,1.584423,1.709552,1.721428,1.700552
2020-11-15 22:12:28.259,1.584923,1.700427,1.720302,1.700802
2020-11-15 22:12:28.276,1.585048,1.705052,1.711552,1.700302
2020-11-15 22:12:28.293,1.587298,1.705552,1.713677,1.699927
2020-11-15 22:12:28.310,1.585798,1.712552,1.714552,1.698427
2020-11-15 22:12:28.327,1.585548,1.712302,1.720052,1.700177
2020-11-15 22:12:28.344,1.585423,1.711927,1.725553,1.700427
2020-11-15 22:12:28.361,1.586048,1.704302,1.720553,1.701677
2020-11-15 22:12:28.378,1.584048,1.705302,1.719552,1.700802
2020-11-15 22:12:28.395,1.586548,1.706052,1.710177,1.699927
2020-11-15 22:12:28.412,1.586298,1.708802,1.713427,1.699552
2020-11-15 22:12:28.429,1.584548,1.718052,1.714552,1.699677
2020-11-15 22:12:28.446,1.585423,1.711927,1.721553,1.699802
2020-11-15 22:12:28.463,1.585548,1.711052,1.723053,1.700677
2020-11-15 22:12:28.480,1.585048,1.702052,1.720803,1.701177
2020-11-15 22:12:28.497,1.583298,1.705177,1.718177,1.700427
2020-11-15 22:12:28.514,1.586298,1.705802,1.708552,1.700177
2020-11-15 22:12:28.531,1.585548,1.710552,1.714052,1.699552
2020-11-15 22:12:28.548,1.586298,1.716177,1.717552,1.698677
2020-11-15 22:12:28.565,1.584548,1.712927,1.728428,1.699302
2020-11-15 22:12:28.582,1.585173,1.709802,1.721053,1.700552
2020-11-15 22:12:28.599,1.584673,1.701552,1.720428,1.701302
2020-11-15 22:12:28.616,1.584298,1.704927,1.711802,1.700302
2020-11-15 22:12:28.633,1.588048,1.705927,1.714177,1.699677
2020-11-15 22:12:28.651,1.586298,1.712302,1.714052,1.699677
2020-11-15 22:12:28.668,1.584673,1.713552,1.718927,1.699427
2020-11-15 22:12:28.685,1.585798,1.712927,1.725053,1.699427
2020-11-15 22:12:28.702,1.585798,1.708927,1.721678,1.700302
2020-11-15 22:12:28.719,1.584423,1.699552,1.719677,1.700302
2020-11-15 22:12:28.736,1.585673,1.705302,1.710927,1.700302
2020-11-15 22:12:28.753,1.587423,1.705927,1.713427,1.699927
2020-11-15 22:12:28.770,1.585548,1.715052,1.714427,1.698802
2020-11-15 22:12:28.787,1.586423,1.712552,1.720553,1.699302
2020-11-15 22:12:28.804,1.585923,1.711677,1.723553,1.699802
2020-11-15 22:12:28.821,1.585048,1.707302,1.721303,1.700302
2020-11-15 22:12:28.838,1.584298,1.699802,1.717802,1.700052
2020-11-15 22:12:28.855,1.586048,1.705427,1.708927,1.700802
2020-11-15 22:12:28.872,1.585423,1.706927,1.714552,1.699677
2020-11-15 22:12:28.890,1.585923,1.711177,1.715052,1.698552
2020-11-15 22:12:28.908,1.585548,1.713802,1.717802,1.699427
2020-11-15 22:12:28.925,1.585423,1.711677,1.727803,1.700302
2020-11-15 22:12:28.942,1.584298,1.706302,1.721053,1.701552
2020-11-15 22:12:28.959,1.584298,1.703052,1.719927,1.700177
2020-11-15 22:12:28.976,1.584298,1.705427,1.711427,1.701052
2020-11-15 22:12:28.993,1.587173,1.709052,1.713802,1.699802
2020-11-15 22:12:29.010,1.585423,1.717052,1.714427,1.699302
2020-11-15 22:12:29.027,1.585298,1.712052,1.719552,1.699552
2020-11-15 22:12:29.044,1.585048,1.711802,1.724678,1.699802
2020-11-15 22:12:29.061,1.584798,1.703552,1.720928,1.702302
2020-11-15 22:12:29.078,1.584298,1.704552,1.718552,1.701302
2020-11-15 22:12:29.095,1.585673,1.705427,1.710677,1.700427
2020-11-15 22:12:29.112,1.586173,1.709802,1.714927,1.699302
2020-11-15 22:12:29.129,1.585298,1.718302,1.717052,1.699302
2020-11-15 22:12:29.146,1.585423,1.711927,1.725928,1.699302
2020-11-15 22:12:29.163,1.585673,1.710927,1.721053,1.700052
2020-11-15 22:12:29.180,1.585798,1.702552,1.720928,1.700927
2020-11-15 22:12:29.197,1.585298,1.705177,1.713427,1.699927
2020-11-15 22:12:29.214,1.588673,1.705552,1.713927,1.699802
2020-11-15 22:12:29.231,1.585423,1.710802,1.714677,1.698677
2020-11-15 22:12:29.248,1.585298,1.715552,1.717802,1.699302
2020-11-15 22:12:29.265,1.584298,1.711802,1.727678,1.698802
2020-11-15 22:12:29.282,1.584923,1.709052,1.721428,1.701927
2020-11-15 22:12:29.299,1.584673,1.703052,1.719802,1.700302
2020-11-15 22:12:29.316,1.585798,1.706177,1.711552,1.700552
2020-11-15 22:12:29.333,1.586923,1.708677,1.713677,1.699927
2020-11-15 22:12:29.350,1.586548,1.717052,1.714427,1.699177
2020-11-15 22:12:29.367,1.586048,1.712302,1.719427,1.699802
2020-11-15 22:12:29.384,1.586423,1.712052,1.725303,1.700427
2020-11-15 22:12:29.402,1.584673,1.704552,1.721428,1.701927
2020-11-15 22:12:29.419,1.584673,1.705302,1.718302,1.700802
2020-11-15 22:12:29.436,1.585548,1.706177,1.709177,1.700677
2020-11-15 22:12:29.453,1.586923,1.709052,1.713427,1.699552
2020-11-15 22:12:29.470,1.585548,1.718302,1.717177,1.698927
2020-11-15 22:12:29.487,1.585298,1.711802,1.726053,1.700177
2020-11-15 22:12:29.504,1.585923,1.711302,1.721678,1.700177
2020-11-15 22:12:29.521,1.583798,1.702302,1.721053,1.701677
2020-11-15 22:12:29.538,1.584548,1.704427,1.713927,1.699927
2020-11-15 22:12:29.555,1.587423,1.705927,1.713677,1.699677
2020-11-15 22:12:29.572,1.585673,1.710052,1.715177,1.697552
2020-11-15 22:12:29.589,1.584923,1.715677,1.717677,1.698927
2020-11-15 22:12:29.606,1.585423,1.711927,1.727553,1.699177
2020-11-15 22:12:29.623,1.585298,1.709802,1.721428,1.700927
2020-11-15 22:12:29.640,1.583673,1.701927,1.720678,1.700427
2020-11-15 22:12:29.657,1.584298,1.705677,1.711677,1.700677
2020-11-15 22:12:29.674,1.587548,1.708052,1.713802,1.699927
2020-11-15 22:12:29.691,1.585673,1.716427,1.714302,1.698177
2020-11-15 22:12:29.709,1.584798,1.713552,1.716302,1.699677
2020-11-15 22:12:29.726,1.585673,1.712427,1.725178,1.700177
2020-11-15 22:12:29.743,1.584798,1.709427,1.721428,1.700552
2020-11-15 22:12:29.760,1.584798,1.700177,1.720553,1.700177
2020-11-15 22:12:29.777,1.585423,1.705427,1.713927,1.700552
2020-11-15 22:12:29.794,1.585798,1.706302,1.711052,1.700552
2020-11-15 22:12:29.811,1.585173,1.715552,1.714927,1.698677
2020-11-15 22:12:29.829,1.585048,1.713052,1.721303,1.699802
2020-11-15 22:12:29.846,1.585423,1.711927,1.723803,1.699552
2020-11-15 22:12:29.863,1.585173,1.707677,1.721428,1.701052
2020-11-15 22:12:29.880,1.584923,1.700552,1.718427,1.700052
2020-11-15 22:12:29.897,1.586048,1.705177,1.709177,1.700802
2020-11-15 22:12:29.914,1.585548,1.707302,1.713802,1.699427
2020-11-15 22:12:29.931,1.585548,1.715552,1.715052,1.698427
2020-11-15 22:12:29.948,1.585673,1.711802,1.723928,1.699052
2020-11-15 22:12:29.965,1.585673,1.711927,1.721678,1.699552
2020-11-15 22:12:29.982,1.585423,1.705052,1.721178,1.700927
2020-11-15 22:12:29.999,1.585673,1.702427,1.717302,1.700427
2020-11-15 22:12:30.016,1.586298,1.705052,1.708677,1.699927
2020-11-15 22:12:30.033,1.585923,1.707802,1.714552,1.698552
2020-11-15 22:12:30.050,1.586423,1.716677,1.716177,1.699802
2020-11-15 22:12:30.067,1.584673,1.711927,1.725053,1.699677
2020-11-15 22:12:30.084,1.585173,1.709427,1.721803,1.700802
2020-11-15 22:12:30.101,1.585048,1.700802,1.721553,1.700927
2020-11-15 22:12:30.118,1.583923,1.705177,1.715302,1.700802
2020-11-15 22:12:30.135,1.586923,1.706302,1.710552,1.699802
2020-11-15 22:12:30.152,1.584923,1.715302,1.714302,1.699052
2020-11-15 22:12:30.169,1.586923,1.712802,1.717052,1.699927
2020-11-15 22:12:30.186,1.585798,1.711677,1.725928,1.699927
2020-11-15 22:12:30.204,1.584798,1.708177,1.721178,1.701427
2020-11-15 22:12:30.221,1.584298,1.699927,1.720052,1.700677
2020-11-15 22:12:30.238,1.584423,1.705802,1.712302,1.700427
2020-11-15 22:12:30.255,1.586548,1.707302,1.713427,1.699677
2020-11-15 22:12:30.272,1.585423,1.716177,1.714552,1.699552
2020-11-15 22:12:30.289,1.585548,1.713552,1.723428,1.699427
2020-11-15 22:12:30.306,1.585298,1.712427,1.722428,1.700177
2020-11-15 22:12:30.323,1.586048,1.705927,1.721053,1.701427
2020-11-15 22:12:30.340,1.585298,1.702802,1.717677,1.700427
2020-11-15 22:12:30.357,1.586423,1.705927,1.708052,1.700427
2020-11-15 22:12:30.374,1.586673,1.707927,1.714552,1.699302
2020-11-15 22:12:30.391,1.585673,1.717552,1.716427,1.699302
2020-11-15 22:12:30.408,1.585923,1.712677,1.725428,1.698677
2020-11-15 22:12:30.425,1.585048,1.711302,1.721928,1.699802
2020-11-15 22:12:30.442,1.584173,1.703427,1.720928,1.700677
2020-11-15 22:12:30.459,1.585673,1.704177,1.716177,1.700802
2020-11-15 22:12:30.476,1.586423,1.706302,1.710427,1.700302
2020-11-15 22:12:30.493,1.584798,1.713927,1.714052,1.699552
2020-11-15 22:12:30.510,1.584673,1.712302,1.716427,1.699427
2020-11-15 22:12:30.527,1.585423,1.710802,1.721928,1.699552
2020-11-15 22:12:30.546,1.584548,1.710427,1.722178,1.700552
2020-11-15 22:12:30.563,1.585923,1.702052,1.721053,1.701427
2020-11-15 22:12:30.580,1.584423,1.704677,1.718427,1.701052
2020-11-15 22:12:30.597,1.586048,1.706052,1.707802,1.699302
2020-11-15 22:12:30.614,1.585673,1.711052,1.713927,1.699552
2020-11-15 22:12:30.631,1.586048,1.715552,1.714552,1.699052
2020-11-15 22:12:30.648,1.585548,1.712052,1.728053,1.699677
2020-11-15 22:12:30.665,1.584173,1.709802,1.721428,1.700802
2020-11-15 22:12:30.682,1.585173,1.701552,1.720177,1.700677
2020-11-15 22:12:30.699,1.584048,1.704677,1.710802,1.700302
2020-11-15 22:12:30.716,1.588423,1.705927,1.714177,1.699802
2020-11-15 22:12:30.733,1.586048,1.713052,1.714927,1.698677
2020-11-15 22:12:30.750,1.585173,1.713052,1.719177,1.699052
2020-11-15 22:12:30.767,1.586298,1.711677,1.726428,1.698552
2020-11-15 22:12:30.784,1.584548,1.708677,1.721178,1.700677
2020-11-15 22:12:30.801,1.585173,1.699302,1.718552,1.700552
2020-11-15 22:12:30.818,1.585423,1.705177,1.710177,1.701177
2020-11-15 22:12:30.835,1.587423,1.708677,1.714052,1.699427
2020-11-15 22:12:30.852,1.586173,1.718302,1.714052,1.698927
2020-11-15 22:12:30.869,1.585298,1.711927,1.721178,1.700052
2020-11-15 22:12:30.886,1.584798,1.711177,1.723053,1.699802
2020-11-15 22:12:30.903,1.585048,1.702677,1.720803,1.701927
2020-11-15 22:12:30.920,1.584048,1.704427,1.717677,1.701052
2020-11-15 22:12:30.937,1.585548,1.706302,1.708302,1.700302
2020-11-15 22:12:30.955,1.584923,1.707927,1.714802,1.700052
2020-11-15 22:12:30.972,1.585548,1.716427,1.715802,1.698802
2020-11-15 22:12:30.989,1.584798,1.712677,1.724053,1.699427
2020-11-15 22:12:31.006,1.586173,1.712052,1.722178,1.699177
2020-11-15 22:12:31.023,1.585548,1.705552,1.720928,1.701302
2020-11-15 22:12:31.040,1.585798,1.703677,1.717177,1.700302
2020-11-15 22:12:31.057,1.587048,1.704802,1.708802,1.700302
2020-11-15 22:12:31.074,1.583923,1.708302,1.714302,1.698927
2020-11-15 22:12:31.091,1.584923,1.717427,1.715677,1.699802
2020-11-15 22:12:31.108,1.585298,1.712177,1.725553,1.699802
2020-11-15 22:12:31.125,1.585048,1.708927,1.721928,1.700802
2020-11-15 22:12:31.143,1.583048,1.700302,1.721428,1.701052
2020-11-15 22:12:31.160,1.585673,1.705927,1.714802,1.701052
2020-11-15 22:12:31.177,1.587048,1.706177,1.711552,1.700302
2020-11-15 22:12:31.194,1.585798,1.714802,1.714302,1.699427
2020-11-15 22:12:31.211,1.585673,1.713052,1.716677,1.699427
2020-11-15 22:12:31.228,1.583798,1.711927,1.726053,1.700052
2020-11-15 22:12:31.245,1.586048,1.708302,1.720553,1.700927
2020-11-15 22:12:31.262,1.584923,1.701052,1.720678,1.700927
2020-11-15 22:12:31.279,1.584798,1.705802,1.709177,1.701177
2020-11-15 22:12:31.296,1.585923,1.707552,1.714052,1.699427
2020-11-15 22:12:31.313,1.585298,1.716427,1.714927,1.698927
2020-11-15 22:12:31.330,1.585798,1.712552,1.723928,1.699427
2020-11-15 22:12:31.347,1.584548,1.711802,1.721678,1.698177
2020-11-15 22:12:31.365,1.584548,1.709302,1.721178,1.701052
2020-11-15 22:12:31.382,1.584298,1.700302,1.719552,1.700052
2020-11-15 22:12:31.399,1.584548,1.705552,1.711427,1.700427
2020-11-15 22:12:31.416,1.586548,1.706302,1.714177,1.700177
2020-11-15 22:12:31.433,1.586298,1.714177,1.714677,1.698302
2020-11-15 22:12:31.450,1.584423,1.712302,1.720678,1.698677
2020-11-15 22:12:31.467,1.585798,1.711677,1.724678,1.700427
2020-11-15 22:12:31.484,1.584798,1.703302,1.721053,1.701677
2020-11-15 22:12:31.501,1.584548,1.705802,1.718677,1.700677
2020-11-15 22:12:31.518,1.585173,1.705927,1.709302,1.700677
2020-11-15 22:12:31.535,1.585798,1.709927,1.713427,1.699552
2020-11-15 22:12:31.552,1.585548,1.717802,1.714302,1.699552
2020-11-15 22:12:31.569,1.585173,1.712427,1.722803,1.699302
2020-11-15 22:12:31.586,1.585673,1.710927,1.720678,1.699552
2020-11-15 22:12:31.603,1.583923,1.702177,1.720553,1.701302
2020-11-15 22:12:31.620,1.585173,1.705427,1.717427,1.700302
2020-11-15 22:12:31.638,1.585173,1.706427,1.714427,1.700677
2020-11-15 22:12:31.655,1.584173,1.711302,1.714677,1.698802
2020-11-15 22:12:31.672,1.585923,1.715302,1.717552,1.699052
2020-11-15 22:12:31.689,1.585423,1.712052,1.727803,1.699927
2020-11-15 22:12:31.706,1.584923,1.709552,1.721053,1.700427
2020-11-15 22:12:31.723,1.583798,1.700552,1.719927,1.700427
2020-11-15 22:12:31.740,1.586048,1.705052,1.710802,1.700427
2020-11-15 22:12:31.757,1.588173,1.705677,1.713552,1.699677
2020-11-15 22:12:31.774,1.586048,1.713427,1.714427,1.699677
2020-11-15 22:12:31.791,1.586048,1.712427,1.720052,1.699802
2020-11-15 22:12:31.808,1.584923,1.711927,1.725178,1.699802
2020-11-15 22:12:31.825,1.583798,1.703677,1.720553,1.702177
2020-11-15 22:12:31.842,1.585048,1.705052,1.718302,1.701302
2020-11-15 22:12:31.859,1.585423,1.705052,1.709552,1.700802
2020-11-15 22:12:31.876,1.585923,1.709302,1.713802,1.699552
2020-11-15 22:12:31.893,1.585548,1.717927,1.713927,1.699802
2020-11-15 22:12:31.910,1.585173,1.712177,1.721303,1.700052
2020-11-15 22:12:31.927,1.584673,1.710927,1.721928,1.700427
2020-11-15 22:12:31.944,1.584298,1.702677,1.721678,1.701927
2020-11-15 22:12:31.961,1.584923,1.704927,1.713427,1.700302
2020-11-15 22:12:31.978,1.587173,1.705927,1.712677,1.699927
2020-11-15 22:12:31.995,1.586173,1.710302,1.714177,1.698302
2020-11-15 22:12:32.012,1.586173,1.715427,1.718302,1.699177
2020-11-15 22:12:32.029,1.585048,1.711802,1.727553,1.699052
2020-11-15 22:12:32.046,1.584923,1.708927,1.721053,1.699427
2020-11-15 22:12:32.063,1.584548,1.700427,1.719552,1.700802
2020-11-15 22:12:32.080,1.585548,1.705302,1.711052,1.700927
2020-11-15 22:12:32.097,1.587548,1.707802,1.713177,1.699927
2020-11-15 22:12:32.114,1.585298,1.716927,1.714552,1.699552
2020-11-15 22:12:32.131,1.585548,1.712302,1.718552,1.699677
2020-11-15 22:12:32.148,1.585048,1.711802,1.725803,1.699802
2020-11-15 22:12:32.165,1.584048,1.704552,1.720553,1.701677
2020-11-15 22:12:32.182,1.584423,1.699052,1.720428,1.700052
2020-11-15 22:12:32.200,1.584923,1.705427,1.713927,1.700052
2020-11-15 22:12:32.218,1.586548,1.706552,1.711677,1.699302
2020-11-15 22:12:32.235,1.586173,1.715427,1.714302,1.698927
2020-11-15 22:12:32.252,1.584673,1.712927,1.721303,1.699427
2020-11-15 22:12:32.269,1.585798,1.712177,1.723178,1.699302
2020-11-15 22:12:32.286,1.585423,1.707802,1.721428,1.701302
2020-11-15 22:12:32.303,1.584298,1.700677,1.718552,1.700427
2020-11-15 22:12:32.320,1.586423,1.705177,1.708552,1.699927
2020-11-15 22:12:32.337,1.585173,1.707302,1.714302,1.699427
2020-11-15 22:12:32.354,1.585173,1.715677,1.714427,1.698052
2020-11-15 22:12:32.371,1.585798,1.712302,1.724303,1.699677
2020-11-15 22:12:32.388,1.585173,1.709677,1.721553,1.700427
2020-11-15 22:12:32.405,1.585673,1.701927,1.720678,1.701427
2020-11-15 22:12:32.422,1.584423,1.705302,1.717052,1.700177
2020-11-15 22:12:32.439,1.586673,1.705552,1.708802,1.700177
2020-11-15 22:12:32.456,1.585423,1.712302,1.714052,1.699302
2020-11-15 22:12:32.473,1.584673,1.713552,1.716052,1.699177
2020-11-15 22:12:32.490,1.584923,1.712302,1.725053,1.699177
2020-11-15 22:12:32.507,1.584048,1.709802,1.721428,1.700552
2020-11-15 22:12:32.524,1.583673,1.700177,1.719802,1.700802
2020-11-15 22:12:32.541,1.584673,1.705177,1.713677,1.700302
2020-11-15 22:12:32.558,1.587048,1.706302,1.713802,1.699427
2020-11-15 22:12:32.575,1.586423,1.714552,1.714677,1.698927
2020-11-15 22:12:32.592,1.585173,1.712677,1.721178,1.699427
2020-11-15 22:12:32.609,1.584548,1.711177,1.723428,1.699677
2020-11-15 22:12:32.626,1.584423,1.707302,1.720803,1.700802
2020-11-15 22:12:32.643,1.583423,1.700177,1.718302,1.699427
2020-11-15 22:12:32.660,1.584798,1.705552,1.709177,1.699677
2020-11-15 22:12:32.677,1.585923,1.706927,1.713927,1.699177
2020-11-15 22:12:32.694,1.586298,1.715552,1.714927,1.698427
2020-11-15 22:12:32.711,1.585048,1.711677,1.723303,1.699302
2020-11-15 22:12:32.728,1.585298,1.710302,1.721928,1.700177
2020-11-15 22:12:32.745,1.584673,1.701802,1.720803,1.701427
2020-11-15 22:12:32.762,1.583173,1.704177,1.717927,1.700927
2020-11-15 22:12:32.779,1.586048,1.705177,1.708052,1.699927
2020-11-15 22:12:32.796,1.586048,1.711802,1.714302,1.698802
2020-11-15 22:12:32.813,1.585423,1.714552,1.715052,1.698927
2020-11-15 22:12:32.830,1.584298,1.711677,1.725053,1.699927
2020-11-15 22:12:32.847,1.584048,1.709302,1.721303,1.701052
2020-11-15 22:12:32.865,1.585173,1.700427,1.720428,1.700302
2020-11-15 22:12:32.882,1.583548,1.705677,1.710927,1.700427
2020-11-15 22:12:32.899,1.586923,1.705927,1.713177,1.700052
2020-11-15 22:12:32.916,1.585423,1.714427,1.714677,1.698927
2020-11-15 22:12:32.933,1.585048,1.712927,1.720428,1.699177
2020-11-15 22:12:32.950,1.585798,1.711677,1.724678,1.699927
2020-11-15 22:12:32.967,1.584048,1.708177,1.721053,1.701177
2020-11-15 22:12:32.984,1.584298,1.700052,1.718302,1.700552
2020-11-15 22:12:33.001,1.585548,1.705552,1.709302,1.699052
2020-11-15 22:12:33.019,1.588923,1.704927,1.713927,1.699677
2020-11-15 22:12:33.036,1.585923,1.710177,1.714302,1.698927
2020-11-15 22:12:33.053,1.586423,1.714552,1.717427,1.698802
2020-11-15 22:12:33.070,1.586548,1.711927,1.727928,1.699802
2020-11-15 22:12:33.087,1.583548,1.705927,1.720928,1.701802
2020-11-15 22:12:33.104,1.585298,1.702802,1.719427,1.701052
2020-11-15 22:12:33.121,1.584673,1.705427,1.710677,1.700677
2020-11-15 22:12:33.138,1.587423,1.708302,1.713677,1.699302
2020-11-15 22:12:33.155,1.585423,1.717927,1.714427,1.699802
2020-11-15 22:12:33.172,1.585173,1.712427,1.718552,1.699552
2020-11-15 22:12:33.189,1.586548,1.712177,1.725303,1.700052
2020-11-15 22:12:33.206,1.584173,1.704177,1.720428,1.701677
2020-11-15 22:12:33.223,1.583673,1.705302,1.718052,1.700177
2020-11-15 22:12:33.240,1.587923,1.705802,1.710302,1.700927
2020-11-15 22:12:33.258,1.586798,1.708677,1.713677,1.699052
2020-11-15 22:12:33.275,1.585798,1.717677,1.714302,1.699677
2020-11-15 22:12:33.292,1.585548,1.712177,1.721803,1.699177
2020-11-15 22:12:33.309,1.585173,1.711302,1.722178,1.699802
2020-11-15 22:12:33.326,1.584923,1.702052,1.720553,1.701677
2020-11-15 22:12:33.343,1.584423,1.704677,1.716927,1.700427
2020-11-15 22:12:33.360,1.586548,1.706052,1.708052,1.700677
2020-11-15 22:12:33.377,1.585423,1.710552,1.713802,1.698927
2020-11-15 22:12:33.394,1.585173,1.715052,1.714177,1.699177
2020-11-15 22:12:33.411,1.584673,1.711927,1.727553,1.699302
2020-11-15 22:12:33.428,1.585798,1.710052,1.721053,1.700177
2020-11-15 22:12:33.445,1.585173,1.701302,1.720052,1.701052
2020-11-15 22:12:33.462,1.584923,1.705302,1.711552,1.700427
2020-11-15 22:12:33.479,1.587923,1.705427,1.713927,1.699552
2020-11-15 22:12:33.496,1.585798,1.712802,1.714552,1.698552
2020-11-15 22:12:33.513,1.585673,1.712927,1.719427,1.699302
2020-11-15 22:12:33.530,1.586048,1.711802,1.726428,1.699427
2020-11-15 22:12:33.548,1.585548,1.708177,1.721053,1.700427
2020-11-15 22:12:33.565,1.585548,1.699552,1.718677,1.700552
2020-11-15 22:12:33.582,1.586048,1.704927,1.710052,1.699677
2020-11-15 22:12:33.599,1.586423,1.705552,1.713927,1.699177
2020-11-15 22:12:33.616,1.586548,1.717927,1.714677,1.699802
2020-11-15 22:12:33.633,1.585048,1.711802,1.720678,1.699177
2020-11-15 22:12:33.650,1.586048,1.711302,1.723053,1.700427
2020-11-15 22:12:33.667,1.586173,1.702802,1.721178,1.701177
2020-11-15 22:12:33.684,1.584923,1.705802,1.718052,1.700427
2020-11-15 22:12:33.701,1.585673,1.706052,1.708052,1.700052
2020-11-15 22:12:33.718,1.585423,1.710052,1.713177,1.699177
2020-11-15 22:12:33.735,1.586798,1.716927,1.714927,1.699552
2020-11-15 22:12:33.752,1.585423,1.711927,1.722803,1.699302
2020-11-15 22:12:33.769,1.585298,1.710177,1.720678,1.700552
2020-11-15 22:12:33.786,1.584548,1.701302,1.720052,1.700677
2020-11-15 22:12:33.803,1.584423,1.704927,1.711802,1.700677
2020-11-15 22:12:33.820,1.588548,1.705677,1.713927,1.700052
2020-11-15 22:12:33.837,1.586423,1.707927,1.714177,1.699302
2020-11-15 22:12:33.855,1.585673,1.717677,1.715802,1.699302
2020-11-15 22:12:33.873,1.586173,1.712302,1.725428,1.699552
2020-11-15 22:12:33.890,1.585673,1.711052,1.722428,1.700177
2020-11-15 22:12:33.907,1.584423,1.702677,1.720928,1.701302
2020-11-15 22:12:33.924,1.585548,1.703927,1.714802,1.699927
2020-11-15 22:12:33.941,1.588298,1.704802,1.711552,1.699677
2020-11-15 22:12:33.958,1.585298,1.709427,1.714302,1.698802
2020-11-15 22:12:33.975,1.586423,1.716802,1.717177,1.698677
2020-11-15 22:12:33.992,1.585048,1.710552,1.726428,1.699427
2020-11-15 22:12:34.009,1.585048,1.707802,1.721678,1.701302
2020-11-15 22:12:34.026,1.585548,1.700302,1.720928,1.700552
2020-11-15 22:12:34.043,1.584923,1.705177,1.713177,1.700677
2020-11-15 22:12:34.060,1.587923,1.707177,1.712802,1.699927
2020-11-15 22:12:34.077,1.586173,1.715302,1.714427,1.699427
2020-11-15 22:12:34.094,1.586298,1.712677,1.717802,1.699677
2020-11-15 22:12:34.111,1.584923,1.712052,1.727553,1.700052
2020-11-15 22:12:34.128,1.585798,1.706052,1.720803,1.701052
2020-11-15 22:12:34.145,1.584673,1.702552,1.719052,1.700427
2020-11-15 22:12:34.162,1.584423,1.705177,1.710427,1.700802
2020-11-15 22:12:34.179,1.587298,1.707927,1.714302,1.699677
2020-11-15 22:12:34.196,1.586423,1.717802,1.716052,1.699427
2020-11-15 22:12:34.213,1.585048,1.712052,1.724678,1.699177
2020-11-15 22:12:34.230,1.585423,1.712052,1.721678,1.699677
2020-11-15 22:12:34.247,1.585423,1.703427,1.720678,1.701552
2020-11-15 22:12:34.264,1.584798,1.704177,1.715552,1.699677
2020-11-15 22:12:34.281,1.587298,1.705052,1.710552,1.699927
2020-11-15 22:12:34.298,1.585673,1.708427,1.714177,1.698802
2020-11-15 22:12:34.315,1.586298,1.717427,1.717052,1.699052
2020-11-15 22:12:34.332,1.586173,1.711802,1.725428,1.698802
2020-11-15 22:12:34.349,1.585048,1.710427,1.721303,1.701052
2020-11-15 22:12:34.366,1.585923,1.701302,1.721053,1.700802
2020-11-15 22:12:34.383,1.585673,1.704927,1.713552,1.700552
2020-11-15 22:12:34.400,1.587423,1.706552,1.713052,1.699927
2020-11-15 22:12:34.418,1.586548,1.715802,1.714302,1.699177
2020-11-15 22:12:34.435,1.585423,1.713052,1.717302,1.699677
2020-11-15 22:12:34.452,1.584923,1.711927,1.726678,1.700677
2020-11-15 22:12:34.469,1.584173,1.707052,1.720803,1.701552
2020-11-15 22:12:34.486,1.585048,1.701927,1.719177,1.700677
2020-11-15 22:12:34.503,1.586298,1.705677,1.710802,1.699927
2020-11-15 22:12:34.520,1.587548,1.707677,1.713052,1.700052
2020-11-15 22:12:34.537,1.585673,1.716802,1.715677,1.699052
2020-11-15 22:12:34.554,1.585798,1.712677,1.724803,1.699552
2020-11-15 22:12:34.571,1.585548,1.712052,1.721803,1.700052
2020-11-15 22:12:34.588,1.585798,1.704177,1.720678,1.701052
2020-11-15 22:12:34.605,1.586298,1.704927,1.716802,1.700677
2020-11-15 22:12:34.622,1.587798,1.705927,1.709802,1.699802
2020-11-15 22:12:34.639,1.586423,1.708677,1.714552,1.698802
2020-11-15 22:12:34.656,1.586173,1.717427,1.717052,1.697427
2020-11-15 22:12:34.674,1.585673,1.712552,1.721303,1.699552
2020-11-15 22:12:34.691,1.585923,1.711802,1.722928,1.697802
2020-11-15 22:12:34.708,1.585298,1.707427,1.721178,1.700677
2020-11-15 22:12:34.725,1.585173,1.700802,1.718052,1.700677
2020-11-15 22:12:34.742,1.586423,1.706052,1.708302,1.700302
2020-11-15 22:12:34.759,1.586923,1.710177,1.714552,1.699302
2020-11-15 22:12:34.776,1.586798,1.716802,1.714927,1.699302
2020-11-15 22:12:34.793,1.585423,1.712177,1.724178,1.699427
2020-11-15 22:12:34.810,1.585673,1.709677,1.721178,1.700052
2020-11-15 22:12:34.828,1.584548,1.700802,1.719927,1.701052
2020-11-15 22:12:34.845,1.585423,1.705052,1.716802,1.700427
2020-11-15 22:12:34.862,1.587173,1.705677,1.707677,1.700052
2020-11-15 22:12:34.879,1.585673,1.712427,1.714052,1.699552
2020-11-15 22:12:34.896,1.585923,1.713802,1.717927,1.699677
2020-11-15 22:12:34.913,1.585798,1.712052,1.727303,1.699552
2020-11-15 22:12:34.930,1.585298,1.709052,1.721053,1.700552
2020-11-15 22:12:34.947,1.586048,1.699427,1.719052,1.700052
2020-11-15 22:12:34.964,1.586673,1.704677,1.710552,1.700552
2020-11-15 22:12:34.981,1.587298,1.706052,1.714177,1.699927
2020-11-15 22:12:34.998,1.586298,1.714427,1.714427,1.698052
2020-11-15 22:12:35.015,1.586048,1.712552,1.720803,1.699052
2020-11-15 22:12:35.032,1.586173,1.711302,1.724053,1.698927
2020-11-15 22:12:35.049,1.585423,1.702927,1.720678,1.702302
2020-11-15 22:12:35.066,1.585798,1.705552,1.718427,1.700302
2020-11-15 22:12:35.083,1.586923,1.706052,1.709302,1.700302
2020-11-15 22:12:35.100,1.586548,1.709677,1.714052,1.698802
2020-11-15 22:12:35.117,1.586548,1.716802,1.714427,1.699302
2020-11-15 22:12:35.134,1.585423,1.711927,1.722803,1.699552
2020-11-15 22:12:35.151,1.585548,1.710177,1.721428,1.700927
2020-11-15 22:12:35.168,1.584673,1.701427,1.720678,1.701427
2020-11-15 22:12:35.185,1.584923,1.705177,1.717052,1.700052
2020-11-15 22:12:35.202,1.587548,1.706302,1.713927,1.700552
2020-11-15 22:12:35.219,1.585548,1.711927,1.713802,1.699302
2020-11-15 22:12:35.236,1.586173,1.714177,1.718427,1.698802
2020-11-15 22:12:35.253,1.585423,1.712177,1.727053,1.699677
2020-11-15 22:12:35.270,1.585798,1.709302,1.720803,1.700427
2020-11-15 22:12:35.287,1.585298,1.700302,1.720052,1.700302
2020-11-15 22:12:35.304,1.586673,1.704302,1.710302,1.700302
2020-11-15 22:12:35.321,1.587048,1.705302,1.713427,1.699677
2020-11-15 22:12:35.338,1.586673,1.713302,1.714302,1.698552
2020-11-15 22:12:35.355,1.585673,1.712302,1.719927,1.699552
2020-11-15 22:12:35.372,1.585548,1.711552,1.725053,1.699927
2020-11-15 22:12:35.389,1.585548,1.703802,1.721053,1.701427
2020-11-15 22:12:35.406,1.584173,1.704927,1.717927,1.700677
2020-11-15 22:12:35.423,1.587923,1.705677,1.708927,1.700177
2020-11-15 22:12:35.440,1.587048,1.708927,1.713552,1.699177
2020-11-15 22:12:35.457,1.586423,1.718177,1.714052,1.698927
2020-11-15 22:12:35.474,1.585298,1.712677,1.721678,1.699677
2020-11-15 22:12:35.491,1.585798,1.711302,1.726428,1.699302
2020-11-15 22:12:35.510,1.585423,1.706427,1.720928,1.701552
2020-11-15 22:12:35.527,1.585798,1.701677,1.719427,1.700302
2020-11-15 22:12:35.544,1.585673,1.705552,1.710427,1.700427
2020-11-15 22:12:35.561,1.588548,1.707802,1.713302,1.699677
2020-11-15 22:12:35.578,1.586173,1.716802,1.714677,1.699552
2020-11-15 22:12:35.595,1.585798,1.712802,1.718927,1.699927
2020-11-15 22:12:35.612,1.585173,1.712427,1.725178,1.699302
2020-11-15 22:12:35.629,1.585173,1.704177,1.720302,1.701302
2020-11-15 22:12:35.646,1.585298,1.705177,1.718052,1.700052
2020-11-15 22:12:35.663,1.585548,1.705177,1.709427,1.700177
2020-11-15 22:12:35.680,1.587048,1.709052,1.715052,1.699552
2020-11-15 22:12:35.698,1.586048,1.717302,1.716302,1.699302
2020-11-15 22:12:35.715,1.585298,1.712302,1.725928,1.698427
2020-11-15 22:12:35.732,1.585423,1.711552,1.721428,1.699927
2020-11-15 22:12:35.749,1.585048,1.701927,1.720803,1.701177
2020-11-15 22:12:35.766,1.586048,1.704302,1.713802,1.700052
2020-11-15 22:12:35.783,1.588048,1.705052,1.712177,1.699677
2020-11-15 22:12:35.800,1.586798,1.710302,1.714552,1.698427
2020-11-15 22:12:35.817,1.587298,1.715677,1.716927,1.698802
2020-11-15 22:12:35.834,1.586923,1.711552,1.726803,1.699802
2020-11-15 22:12:35.851,1.586673,1.707052,1.721053,1.701427
2020-11-15 22:12:35.868,1.585548,1.701302,1.720302,1.701052
2020-11-15 22:12:35.885,1.586923,1.705677,1.711052,1.700302
2020-11-15 22:12:35.902,1.588298,1.707802,1.713302,1.699802
2020-11-15 22:12:35.919,1.586548,1.716427,1.714302,1.699302
2020-11-15 22:12:35.936,1.586298,1.712677,1.718302,1.699302
2020-11-15 22:12:35.953,1.584923,1.711927,1.726678,1.700302
2020-11-15 22:12:35.970,1.583923,1.705177,1.720428,1.701927
2020-11-15 22:12:35.987,1.584923,1.703427,1.719177,1.700427
2020-11-15 22:12:36.004,1.585298,1.705427,1.709927,1.700677
2020-11-15 22:12:36.021,1.587423,1.708427,1.713552,1.699427
2020-11-15 22:12:36.038,1.586173,1.718427,1.714177,1.699677
2020-11-15 22:12:36.055,1.584673,1.712177,1.726303,1.700052
2020-11-15 22:12:36.072,1.585548,1.711427,1.721553,1.699552
2020-11-15 22:12:36.089,1.586048,1.703302,1.720928,1.700927
2020-11-15 22:12:36.106,1.584673,1.704302,1.715427,1.700177
2020-11-15 22:12:36.123,1.588298,1.705302,1.711302,1.699552
2020-11-15 22:12:36.140,1.587048,1.708802,1.714427,1.698427
2020-11-15 22:12:36.157,1.586173,1.716677,1.716802,1.699052
2020-11-15 22:12:36.174,1.585673,1.711927,1.726053,1.698552
2020-11-15 22:12:36.191,1.586173,1.709927,1.721178,1.699427
2020-11-15 22:12:36.209,1.585048,1.701177,1.720803,1.700927
2020-11-15 22:12:36.226,1.586173,1.705677,1.712302,1.700927
2020-11-15 22:12:36.243,1.588923,1.706927,1.713052,1.699677
2020-11-15 22:12:36.260,1.586673,1.715552,1.713927,1.698552
2020-11-15 22:12:36.277,1.586423,1.712552,1.717177,1.699927
2020-11-15 22:12:36.294,1.585048,1.711802,1.726678,1.699552
2020-11-15 22:12:36.311,1.585298,1.706302,1.720553,1.700177
2020-11-15 22:12:36.329,1.585423,1.700802,1.720678,1.700552
2020-11-15 22:12:36.346,1.585048,1.705052,1.715552,1.700802
2020-11-15 22:12:36.363,1.586673,1.705677,1.709177,1.700302
2020-11-15 22:12:36.380,1.585548,1.713427,1.714052,1.698427
2020-11-15 22:12:36.397,1.585548,1.713052,1.719552,1.700052
2020-11-15 22:12:36.414,1.585798,1.712052,1.724928,1.699802
2020-11-15 22:12:36.431,1.584923,1.709052,1.721303,1.700552
2020-11-15 22:12:36.448,1.584798,1.699427,1.718552,1.700177
2020-11-15 22:12:36.465,1.586673,1.704677,1.709552,1.699802
2020-11-15 22:12:36.482,1.586923,1.706427,1.713552,1.699052
2020-11-15 22:12:36.499,1.586048,1.715177,1.714927,1.698677
2020-11-15 22:12:36.516,1.585548,1.711927,1.722678,1.698677
2020-11-15 22:12:36.533,1.586548,1.712052,1.721803,1.699927
2020-11-15 22:12:36.550,1.584798,1.702927,1.720678,1.701552
2020-11-15 22:12:36.567,1.583673,1.704802,1.717802,1.700552
2020-11-15 22:12:36.584,1.587298,1.705677,1.708427,1.700552
2020-11-15 22:12:36.601,1.586173,1.710177,1.713802,1.699177
2020-11-15 22:12:36.618,1.585048,1.715427,1.714677,1.698927
2020-11-15 22:12:36.635,1.584798,1.711802,1.724053,1.699302
2020-11-15 22:12:36.652,1.585173,1.710302,1.720803,1.700302
2020-11-15 22:12:36.669,1.584548,1.700927,1.720302,1.700552
2020-11-15 22:12:36.686,1.585673,1.704927,1.715427,1.700802
2020-11-15 22:12:36.703,1.587048,1.705177,1.713177,1.699802
2020-11-15 22:12:36.720,1.586048,1.712802,1.714677,1.698552
2020-11-15 22:12:36.738,1.585298,1.712677,1.719552,1.698802
2020-11-15 22:12:36.755,1.585548,1.713177,1.726428,1.699177
2020-11-15 22:12:36.772,1.584173,1.707802,1.721053,1.700802
2020-11-15 22:12:36.789,1.585298,1.699052,1.718802,1.700177
2020-11-15 22:12:36.806,1.585048,1.704552,1.710052,1.700052
2020-11-15 22:12:36.823,1.586673,1.705427,1.713552,1.698802
2020-11-15 22:12:36.840,1.586548,1.714427,1.714552,1.698302
2020-11-15 22:12:36.857,1.585798,1.711427,1.720803,1.699802
2020-11-15 22:12:36.874,1.585923,1.711302,1.722553,1.699552
2020-11-15 22:12:36.891,1.585048,1.702552,1.721178,1.701802
2020-11-15 22:12:36.908,1.584423,1.704927,1.718177,1.700677
2020-11-15 22:12:36.925,1.586923,1.705302,1.708677,1.700552
2020-11-15 22:12:36.942,1.586173,1.709802,1.714302,1.698927
2020-11-15 22:12:36.959,1.587048,1.716677,1.715302,1.699302
2020-11-15 22:12:36.976,1.585173,1.712177,1.723678,1.699177
2020-11-15 22:12:36.993,1.585423,1.709927,1.721303,1.700302
2020-11-15 22:12:37.010,1.584298,1.701177,1.720302,1.701052
2020-11-15 22:12:37.027,1.584048,1.704427,1.716302,1.700427
2020-11-15 22:12:37.044,1.586173,1.705427,1.707802,1.700052
2020-11-15 22:12:37.061,1.585048,1.712052,1.714427,1.698427
2020-11-15 22:12:37.078,1.585173,1.713552,1.717927,1.698927
2020-11-15 22:12:37.095,1.584423,1.712052,1.727303,1.699052
2020-11-15 22:12:37.112,1.586798,1.708802,1.720553,1.700552
2020-11-15 22:12:37.129,1.585423,1.700052,1.719802,1.700052
2020-11-15 22:12:37.146,1.585423,1.703927,1.715552,1.699927
2020-11-15 22:12:37.165,1.587298,1.705302,1.710427,1.699802
2020-11-15 22:12:37.182,1.586173,1.708802,1.714802,1.699052
2020-11-15 22:12:37.199,1.585423,1.717427,1.716427,1.698552
2020-11-15 22:12:37.216,1.585923,1.711427,1.726428,1.698927
2020-11-15 22:12:37.233,1.584923,1.710552,1.721428,1.699177
2020-11-15 22:12:37.250,1.585423,1.701552,1.720678,1.700802
2020-11-15 22:12:37.267,1.585048,1.704427,1.713302,1.700052
2020-11-15 22:12:37.284,1.587798,1.704427,1.713552,1.699302
2020-11-15 22:12:37.301,1.585548,1.715427,1.714427,1.698302
2020-11-15 22:12:37.318,1.585423,1.712427,1.717552,1.699427
2020-11-15 22:12:37.335,1.585048,1.711677,1.727928,1.700052
2020-11-15 22:12:37.352,1.585798,1.705927,1.720553,1.701677
2020-11-15 22:12:37.369,1.584548,1.702302,1.719302,1.699927
2020-11-15 22:12:37.386,1.585423,1.705052,1.710677,1.700177
2020-11-15 22:12:37.403,1.588173,1.707802,1.712802,1.699427
2020-11-15 22:12:37.420,1.585548,1.716677,1.713927,1.699052
2020-11-15 22:12:37.437,1.585173,1.712927,1.718427,1.699677
2020-11-15 22:12:37.454,1.585173,1.712177,1.722178,1.700427
2020-11-15 22:12:37.471,1.585298,1.704177,1.720428,1.701302
2020-11-15 22:12:37.488,1.584923,1.704802,1.716177,1.699927
2020-11-15 22:12:37.505,1.586673,1.705302,1.710177,1.699927
2020-11-15 22:12:37.522,1.586298,1.708177,1.714802,1.699302
2020-11-15 22:12:37.539,1.585048,1.717677,1.716302,1.698677
2020-11-15 22:12:37.556,1.585298,1.711802,1.725428,1.699052
2020-11-15 22:12:37.573,1.585673,1.710177,1.721678,1.698427
2020-11-15 22:12:37.590,1.584548,1.702427,1.720803,1.700177
2020-11-15 22:12:37.607,1.585048,1.703302,1.713677,1.700427
2020-11-15 22:12:37.624,1.587173,1.704427,1.712552,1.699427
2020-11-15 22:12:37.642,1.586048,1.715552,1.714552,1.698177
2020-11-15 22:12:37.659,1.585673,1.712427,1.716927,1.699177
2020-11-15 22:12:37.676,1.584548,1.711802,1.727178,1.698927
2020-11-15 22:12:37.693,1.584048,1.706802,1.720803,1.700927
2020-11-15 22:12:37.710,1.584173,1.701302,1.719427,1.700677
2020-11-15 22:12:37.727,1.584798,1.704552,1.711302,1.700052
2020-11-15 22:12:37.744,1.588173,1.707677,1.713052,1.699927
2020-11-15 22:12:37.761,1.585673,1.716052,1.714052,1.699427
2020-11-15 22:12:37.778,1.584548,1.712177,1.717927,1.699677
2020-11-15 22:12:37.795,1.584048,1.712052,1.725803,1.699552
2020-11-15 22:12:37.812,1.584548,1.705052,1.720302,1.701427
2020-11-15 22:12:37.829,1.585298,1.704052,1.716927,1.700302
2020-11-15 22:12:37.846,1.586548,1.705302,1.709052,1.700552
2020-11-15 22:12:37.863,1.586048,1.708302,1.713427,1.699302
2020-11-15 22:12:37.880,1.584423,1.718177,1.714052,1.699302
2020-11-15 22:12:37.898,1.586048,1.712177,1.720177,1.699302
2020-11-15 22:12:37.915,1.585048,1.710802,1.723053,1.699677
2020-11-15 22:12:37.932,1.584673,1.702677,1.719802,1.701427
2020-11-15 22:12:37.949,1.584673,1.704927,1.717427,1.700177
2020-11-15 22:12:37.966,1.586298,1.705177,1.708427,1.699552
2020-11-15 22:12:37.984,1.587423,1.707177,1.712552,1.699802
2020-11-15 22:12:38.001,1.585923,1.715677,1.714177,1.699802
2020-11-15 22:12:38.018,1.584923,1.712302,1.723053,1.699302
2020-11-15 22:12:38.035,1.585423,1.711552,1.721303,1.700052
2020-11-15 22:12:38.052,1.584673,1.705677,1.720928,1.701052
2020-11-15 22:12:38.069,1.585173,1.702677,1.717052,1.699802
2020-11-15 22:12:38.086,1.588173,1.705427,1.708052,1.700302
2020-11-15 22:12:38.103,1.585923,1.707052,1.714302,1.699052
2020-11-15 22:12:38.120,1.585798,1.717177,1.715052,1.698927
2020-11-15 22:12:38.137,1.585548,1.711427,1.724303,1.699677
2020-11-15 22:12:38.154,1.584923,1.711302,1.721553,1.699302
2020-11-15 22:12:38.171,1.585673,1.702552,1.720428,1.700552
2020-11-15 22:12:38.189,1.585548,1.704052,1.714927,1.699927
2020-11-15 22:12:38.206,1.587173,1.705802,1.710052,1.699802
2020-11-15 22:12:38.223,1.586048,1.713802,1.714302,1.698802
2020-11-15 22:12:38.240,1.586298,1.712802,1.716927,1.699427
2020-11-15 22:12:38.257,1.584673,1.712427,1.726303,1.699677
2020-11-15 22:12:38.274,1.584048,1.707927,1.720928,1.700677
2020-11-15 22:12:38.291,1.585173,1.699927,1.720553,1.700177
2020-11-15 22:12:38.308,1.584673,1.705677,1.712677,1.700677
2020-11-15 22:12:38.325,1.587298,1.706677,1.712552,1.700052
2020-11-15 22:12:38.342,1.585548,1.716052,1.713927,1.698677
2020-11-15 22:12:38.359,1.585298,1.712552,1.716927,1.698802
2020-11-15 22:12:38.376,1.586173,1.711802,1.726428,1.699927
2020-11-15 22:12:38.393,1.585173,1.706677,1.719927,1.700927
2020-11-15 22:12:38.410,1.583673,1.701052,1.719052,1.700052
2020-11-15 22:12:38.427,1.584923,1.705177,1.710302,1.700427
2020-11-15 22:12:38.444,1.587673,1.707677,1.714302,1.699302
2020-11-15 22:12:38.461,1.585673,1.716177,1.715677,1.699302
2020-11-15 22:12:38.478,1.585173,1.712177,1.724178,1.698927
2020-11-15 22:12:38.495,1.584423,1.712177,1.721928,1.699427
2020-11-15 22:12:38.512,1.585298,1.703927,1.720052,1.700552
2020-11-15 22:12:38.529,1.584548,1.703802,1.716052,1.700302
2020-11-15 22:12:38.546,1.587673,1.705052,1.709052,1.699927
2020-11-15 22:12:38.563,1.586048,1.708302,1.714427,1.698552
2020-11-15 22:12:38.580,1.585673,1.716552,1.716052,1.699052
2020-11-15 22:12:38.597,1.585048,1.710802,1.725553,1.699302
2020-11-15 22:12:38.614,1.584173,1.709052,1.721428,1.700677
2020-11-15 22:12:38.631,1.585798,1.699302,1.720302,1.700677
2020-11-15 22:12:38.649,1.585673,1.705052,1.713677,1.700052
2020-11-15 22:12:38.666,1.587298,1.706552,1.711927,1.699927
2020-11-15 22:12:38.683,1.585673,1.714677,1.713927,1.698802
2020-11-15 22:12:38.700,1.586173,1.712302,1.716927,1.699802
2020-11-15 22:12:38.717,1.585048,1.711427,1.726053,1.699802
2020-11-15 22:12:38.734,1.586673,1.707427,1.719927,1.700927
2020-11-15 22:12:38.751,1.585298,1.700802,1.719802,1.700302
2020-11-15 22:12:38.768,1.584173,1.705177,1.710677,1.699927
2020-11-15 22:12:38.785,1.588173,1.707052,1.712927,1.699677
2020-11-15 22:12:38.802,1.586173,1.711927,1.713802,1.699177
2020-11-15 22:12:38.820,1.586423,1.713427,1.714302,1.699552
2020-11-15 22:12:38.837,1.585548,1.711927,1.726303,1.699677
2020-11-15 22:12:38.854,1.584298,1.708677,1.721053,1.700552
2020-11-15 22:12:38.871,1.585673,1.699927,1.719302,1.700052
2020-11-15 22:12:38.888,1.586173,1.704927,1.710302,1.700302
2020-11-15 22:12:38.905,1.587548,1.705677,1.713552,1.699427
2020-11-15 22:12:38.922,1.585923,1.714177,1.713677,1.697927
2020-11-15 22:12:38.939,1.585923,1.711927,1.720302,1.698427
2020-11-15 22:12:38.956,1.585798,1.711052,1.724053,1.698677
2020-11-15 22:12:38.973,1.585548,1.707677,1.721428,1.701552
2020-11-15 22:12:38.990,1.584798,1.704677,1.718552,1.700427
2020-11-15 22:12:39.007,1.586423,1.705427,1.708677,1.699927
2020-11-15 22:12:39.024,1.587048,1.708802,1.713552,1.698927
2020-11-15 22:12:39.041,1.586173,1.717677,1.714427,1.699552
2020-11-15 22:12:39.059,1.586048,1.711927,1.721928,1.699427
2020-11-15 22:12:39.076,1.586173,1.710427,1.721553,1.699677
2020-11-15 22:12:39.093,1.585423,1.701802,1.719802,1.700802
2020-11-15 22:12:39.110,1.585298,1.704927,1.717302,1.700552
2020-11-15 22:12:39.127,1.586048,1.705302,1.713552,1.699927
2020-11-15 22:12:39.144,1.586298,1.710552,1.713927,1.698302
2020-11-15 22:12:39.161,1.586298,1.714552,1.717427,1.698802
2020-11-15 22:12:39.178,1.584798,1.711677,1.727303,1.699177
2020-11-15 22:12:39.195,1.584923,1.709052,1.721178,1.699677
2020-11-15 22:12:39.212,1.585048,1.700552,1.719552,1.700302
2020-11-15 22:12:39.229,1.585798,1.704302,1.710552,1.699552
2020-11-15 22:12:39.246,1.587173,1.704302,1.713427,1.699302
2020-11-15 22:12:39.263,1.586298,1.712677,1.714177,1.698177
2020-11-15 22:12:39.280,1.586673,1.711177,1.719177,1.699427
2020-11-15 22:12:39.297,1.585673,1.711302,1.724928,1.699927
2020-11-15 22:12:39.314,1.585423,1.703427,1.720803,1.701052
2020-11-15 22:12:39.331,1.584548,1.703927,1.719052,1.700177
2020-11-15 22:12:39.348,1.586298,1.705427,1.709302,1.700177
2020-11-15 22:12:39.365,1.586798,1.708302,1.713052,1.698677
2020-11-15 22:12:39.382,1.585423,1.717052,1.713677,1.698927
2020-11-15 22:12:39.399,1.584548,1.711802,1.721053,1.699552
2020-11-15 22:12:39.416,1.585798,1.711052,1.722053,1.700427
2020-11-15 22:12:39.433,1.584673,1.702177,1.720428,1.701427
2020-11-15 22:12:39.450,1.584298,1.704677,1.714052,1.700177
2020-11-15 22:12:39.467,1.588423,1.705677,1.712552,1.699927
2020-11-15 22:12:39.484,1.586423,1.710177,1.714177,1.698177
2020-11-15 22:12:39.501,1.585923,1.715302,1.717427,1.699052
2020-11-15 22:12:39.518,1.585673,1.711677,1.727053,1.699177
2020-11-15 22:12:39.535,1.585798,1.708802,1.720803,1.699677
2020-11-15 22:12:39.552,1.585173,1.699802,1.719927,1.700302
2020-11-15 22:12:39.569,1.585048,1.703552,1.711052,1.699802
2020-11-15 22:12:39.586,1.587923,1.704427,1.713302,1.699177
2020-11-15 22:12:39.603,1.585048,1.716427,1.713927,1.698802
2020-11-15 22:12:39.620,1.585798,1.712552,1.717927,1.698302
2020-11-15 22:12:39.638,1.586048,1.711302,1.725428,1.698427
2020-11-15 22:12:39.655,1.585173,1.708552,1.721553,1.700677
2020-11-15 22:12:39.673,1.583923,1.699677,1.720052,1.700177
2020-11-15 22:12:39.690,1.584548,1.705302,1.714427,1.699677
2020-11-15 22:12:39.707,1.586798,1.705677,1.710677,1.699177
2020-11-15 22:12:39.724,1.586798,1.714677,1.713552,1.698427
2020-11-15 22:12:39.741,1.586548,1.712552,1.716302,1.699552
2020-11-15 22:12:39.758,1.585923,1.711177,1.725928,1.699302
2020-11-15 22:12:39.775,1.584423,1.707677,1.720177,1.700427
2020-11-15 22:12:39.792,1.584923,1.700677,1.718052,1.700052
2020-11-15 22:12:39.809,1.586048,1.704802,1.708427,1.699677
2020-11-15 22:12:39.826,1.585298,1.705927,1.714552,1.699052
2020-11-15 22:12:39.843,1.586548,1.716177,1.714552,1.698302
2020-11-15 22:12:39.860,1.585798,1.712177,1.723303,1.699052
2020-11-15 22:12:39.877,1.585673,1.711052,1.721053,1.698552
2020-11-15 22:12:39.894,1.584798,1.704177,1.720428,1.700802
2020-11-15 22:12:39.911,1.585173,1.702177,1.717052,1.700052
2020-11-15 22:12:39.928,1.587923,1.705302,1.707427,1.699927
2020-11-15 22:12:39.945,1.585548,1.711427,1.713427,1.698677
2020-11-15 22:12:39.962,1.586548,1.713802,1.714927,1.699677
2020-11-15 22:12:39.979,1.585298,1.711677,1.724553,1.699052
2020-11-15 22:12:39.996,1.585298,1.708552,1.721928,1.700427
2020-11-15 22:12:40.013,1.584423,1.699927,1.719927,1.700052
2020-11-15 22:12:40.030,1.583798,1.705052,1.714927,1.699927
2020-11-15 22:12:40.047,1.586173,1.705177,1.710302,1.699552
2020-11-15 22:12:40.064,1.586298,1.714427,1.713052,1.698427
2020-11-15 22:12:40.081,1.584923,1.712052,1.720302,1.699927
2020-11-15 22:12:40.098,1.586298,1.711802,1.724553,1.699177
2020-11-15 22:12:40.115,1.585548,1.708302,1.721178,1.700052
2020-11-15 22:12:40.132,1.585173,1.699427,1.718052,1.699927
2020-11-15 22:12:40.149,1.586548,1.704677,1.708552,1.699677
2020-11-15 22:12:40.166,1.586673,1.706677,1.712427,1.699677
2020-11-15 22:12:40.184,1.585923,1.715302,1.714677,1.698802
2020-11-15 22:12:40.201,1.585548,1.712552,1.721928,1.698802
2020-11-15 22:12:40.218,1.586173,1.711677,1.721053,1.699427
2020-11-15 22:12:40.235,1.585423,1.705677,1.720553,1.700552
2020-11-15 22:12:40.252,1.585423,1.702677,1.717427,1.700302
2020-11-15 22:12:40.269,1.586173,1.704552,1.708052,1.700427
2020-11-15 22:12:40.286,1.585548,1.707427,1.714177,1.698677
2020-11-15 22:12:40.303,1.585298,1.716177,1.715302,1.698177
2020-11-15 22:12:40.320,1.585048,1.711302,1.724303,1.699177
2020-11-15 22:12:40.337,1.586298,1.708802,1.721303,1.700552
2020-11-15 22:12:40.354,1.584798,1.700802,1.720428,1.700677
2020-11-15 22:12:40.371,1.584298,1.704927,1.716052,1.700302
2020-11-15 22:12:40.388,1.587673,1.705427,1.709427,1.700177
2020-11-15 22:12:40.405,1.584923,1.712802,1.714427,1.698552
2020-11-15 22:12:40.422,1.585798,1.712302,1.715677,1.699552
2020-11-15 22:12:40.439,1.585923,1.711927,1.725053,1.699427
2020-11-15 22:12:40.456,1.585798,1.710427,1.722303,1.699927
2020-11-15 22:12:40.474,1.585298,1.701802,1.720177,1.700927
2020-11-15 22:12:40.492,1.585798,1.704427,1.717552,1.700052
2020-11-15 22:12:40.509,1.587298,1.705302,1.707677,1.700177
2020-11-15 22:12:40.526,1.586048,1.709552,1.713302,1.699052
2020-11-15 22:12:40.543,1.585173,1.716052,1.714302,1.699427
2020-11-15 22:12:40.560,1.585298,1.711927,1.727053,1.698552
2020-11-15 22:12:40.577,1.585548,1.709927,1.720928,1.700552
2020-11-15 22:12:40.594,1.586048,1.701052,1.720052,1.700427
2020-11-15 22:12:40.611,1.585298,1.704427,1.711302,1.699802
2020-11-15 22:12:40.628,1.589048,1.704927,1.713552,1.699677
2020-11-15 22:12:40.645,1.586298,1.712052,1.713927,1.698427
2020-11-15 22:12:40.662,1.586048,1.713177,1.717677,1.698927
2020-11-15 22:12:40.679,1.584673,1.711052,1.727053,1.698677
2020-11-15 22:12:40.696,1.585798,1.708302,1.721303,1.699552
2020-11-15 22:12:40.713,1.585548,1.699052,1.719177,1.699802
2020-11-15 22:12:40.730,1.586048,1.704552,1.710552,1.699552
2020-11-15 22:12:40.747,1.588048,1.708677,1.713427,1.698802
2020-11-15 22:12:40.764,1.587298,1.717552,1.714677,1.699177
2020-11-15 22:12:40.781,1.585923,1.711802,1.720428,1.699302
2020-11-15 22:12:40.798,1.584298,1.710802,1.723303,1.699552
2020-11-15 22:12:40.815,1.584798,1.702552,1.720302,1.701677
2020-11-15 22:12:40.832,1.586173,1.704802,1.717927,1.700427
2020-11-15 22:12:40.849,1.585173,1.704677,1.708802,1.700552
2020-11-15 22:12:40.866,1.586173,1.709552,1.713552,1.698927
2020-11-15 22:12:40.883,1.583923,1.717552,1.713927,1.699302
2020-11-15 22:12:40.900,1.585298,1.712052,1.722303,1.699177
2020-11-15 22:12:40.917,1.586173,1.710302,1.720553,1.700177
2020-11-15 22:12:40.934,1.584673,1.700927,1.720553,1.701052
2020-11-15 22:12:40.951,1.584048,1.704302,1.711927,1.699927
2020-11-15 22:12:40.968,1.588048,1.705052,1.714052,1.699677
2020-11-15 22:12:40.985,1.585423,1.711427,1.713677,1.698802
2020-11-15 22:12:41.003,1.585798,1.714427,1.717927,1.699052
2020-11-15 22:12:41.020,1.586173,1.711802,1.726928,1.698802
2020-11-15 22:12:41.037,1.585173,1.708802,1.720678,1.700302
2020-11-15 22:12:41.054,1.585298,1.699427,1.719552,1.699552
2020-11-15 22:12:41.071,1.585798,1.704427,1.710427,1.699302
2020-11-15 22:12:41.088,1.588173,1.705427,1.713427,1.699052
2020-11-15 22:12:41.105,1.585548,1.712302,1.714427,1.698427
2020-11-15 22:12:41.122,1.586298,1.711552,1.719302,1.699052
2020-11-15 22:12:41.139,1.586173,1.711177,1.725053,1.699802
2020-11-15 22:12:41.156,1.584423,1.703177,1.720553,1.700927
2020-11-15 22:12:41.173,1.584048,1.704177,1.717802,1.699927
2020-11-15 22:12:41.190,1.586673,1.705302,1.709552,1.699552
2020-11-15 22:12:41.207,1.587173,1.709177,1.713427,1.698427
2020-11-15 22:12:41.224,1.586048,1.717177,1.714177,1.699302
2020-11-15 22:12:41.241,1.586173,1.711927,1.722178,1.699802
2020-11-15 22:12:41.258,1.584923,1.710177,1.720803,1.700302
2020-11-15 22:12:41.275,1.586298,1.701177,1.720302,1.700052
2020-11-15 22:12:41.293,1.586048,1.702052,1.719677,1.700052
2020-11-15 22:12:41.311,1.586423,1.704802,1.710302,1.700177
2020-11-15 22:12:41.328,1.586798,1.707677,1.712802,1.698677
2020-11-15 22:12:41.345,1.585923,1.716677,1.713302,1.698677
2020-11-15 22:12:41.362,1.585048,1.712302,1.717927,1.699052
2020-11-15 22:12:41.379,1.585673,1.711052,1.721303,1.699552
2020-11-15 22:12:41.396,1.585048,1.704177,1.720052,1.700927
2020-11-15 22:12:41.413,1.585673,1.703677,1.715677,1.700052
2020-11-15 22:12:41.430,1.586798,1.704677,1.709177,1.700177
2020-11-15 22:12:41.447,1.585798,1.707677,1.714677,1.698927
2020-11-15 22:12:41.464,1.586548,1.717302,1.716427,1.698802
2020-11-15 22:12:41.481,1.584673,1.711677,1.725428,1.698677
2020-11-15 22:12:41.498,1.585298,1.710677,1.721428,1.699052
2020-11-15 22:12:41.515,1.585798,1.701677,1.720553,1.700552
2020-11-15 22:12:41.532,1.584923,1.703552,1.713927,1.699552
2020-11-15 22:12:41.549,1.587173,1.706302,1.712052,1.699677
2020-11-15 22:12:41.566,1.587048,1.714177,1.713302,1.698677
2020-11-15 22:12:41.583,1.586048,1.712302,1.717177,1.699927
2020-11-15 22:12:41.600,1.585673,1.711802,1.726553,1.699677
2020-11-15 22:12:41.617,1.585298,1.706927,1.720678,1.701177
2020-11-15 22:12:41.634,1.584548,1.700927,1.720678,1.700302
2020-11-15 22:12:41.651,1.585548,1.704802,1.711052,1.700052
2020-11-15 22:12:41.668,1.587548,1.706927,1.712677,1.699177
2020-11-15 22:12:41.685,1.584798,1.715302,1.713427,1.699052
2020-11-15 22:12:41.702,1.585548,1.712302,1.717052,1.698927
2020-11-15 22:12:41.719,1.584673,1.711052,1.721678,1.699302
2020-11-15 22:12:41.736,1.585423,1.705052,1.720052,1.700927
2020-11-15 22:12:41.753,1.585923,1.703552,1.716927,1.699677
2020-11-15 22:12:41.770,1.587048,1.705427,1.708052,1.700177
2020-11-15 22:12:41.787,1.587048,1.707802,1.714677,1.698802
2020-11-15 22:12:41.804,1.585048,1.717302,1.715927,1.698927
2020-11-15 22:12:41.821,1.584798,1.711677,1.724678,1.698927
2020-11-15 22:12:41.839,1.586048,1.710677,1.721303,1.699177
2020-11-15 22:12:41.856,1.584548,1.701677,1.720928,1.700927
2020-11-15 22:12:41.873,1.584173,1.703802,1.715552,1.699927
2020-11-15 22:12:41.890,1.587548,1.704802,1.710677,1.699802
2020-11-15 22:12:41.907,1.585673,1.714427,1.713927,1.698552
2020-11-15 22:12:41.924,1.585923,1.712552,1.716552,1.699552
2020-11-15 22:12:41.941,1.586173,1.711302,1.725678,1.699177
2020-11-15 22:12:41.958,1.584673,1.707552,1.720928,1.700927
2020-11-15 22:12:41.975,1.584673,1.699802,1.720428,1.700802
2020-11-15 22:12:41.992,1.585173,1.704677,1.711927,1.699927
2020-11-15 22:12:42.009,1.587298,1.706677,1.712302,1.698927
2020-11-15 22:12:42.026,1.585173,1.715427,1.713802,1.698427
2020-11-15 22:12:42.043,1.585298,1.712302,1.717302,1.698927
2020-11-15 22:12:42.060,1.584423,1.711302,1.725803,1.699927
2020-11-15 22:12:42.077,1.584673,1.705677,1.719552,1.700802
2020-11-15 22:12:42.094,1.583673,1.702677,1.719052,1.700177
2020-11-15 22:12:42.111,1.584798,1.704177,1.715427,1.699802
2020-11-15 22:12:42.129,1.586548,1.705177,1.713177,1.699802
2020-11-15 22:12:42.146,1.585548,1.713302,1.714552,1.698177
2020-11-15 22:12:42.163,1.586423,1.712302,1.718927,1.699427
2020-11-15 22:12:42.180,1.585798,1.711552,1.724678,1.699302
2020-11-15 22:12:42.198,1.585548,1.708302,1.720928,1.700677
2020-11-15 22:12:42.215,1.585048,1.699802,1.718802,1.699802
2020-11-15 22:12:42.232,1.586298,1.704802,1.710052,1.700052
2020-11-15 22:12:42.249,1.585798,1.706427,1.713677,1.698927
2020-11-15 22:12:42.266,1.586673,1.714927,1.714177,1.697802
2020-11-15 22:12:42.283,1.585173,1.711802,1.721678,1.698552
2020-11-15 22:12:42.300,1.585173,1.710677,1.721928,1.699427
2020-11-15 22:12:42.317,1.585423,1.705927,1.721178,1.700302
2020-11-15 22:12:42.334,1.584923,1.704552,1.717552,1.700052
2020-11-15 22:12:42.351,1.586423,1.705552,1.707802,1.700177
2020-11-15 22:12:42.368,1.585923,1.710177,1.713302,1.698427
2020-11-15 22:12:42.385,1.586673,1.715302,1.714177,1.698927
2020-11-15 22:12:42.402,1.584923,1.712177,1.723303,1.699552
2020-11-15 22:12:42.419,1.584423,1.709177,1.720803,1.700177
2020-11-15 22:12:42.436,1.583923,1.700927,1.719927,1.701302
2020-11-15 22:12:42.453,1.584798,1.704677,1.716427,1.699927
2020-11-15 22:12:42.470,1.587423,1.704427,1.708802,1.699802
2020-11-15 22:12:42.488,1.585798,1.712677,1.714052,1.698552
2020-11-15 22:12:42.505,1.586548,1.717177,1.715427,1.698677
2020-11-15 22:12:42.522,1.585423,1.711552,1.725553,1.699052
2020-11-15 22:12:42.539,1.585798,1.708802,1.721428,1.700927
2020-11-15 22:12:42.556,1.585173,1.700052,1.720428,1.700177
2020-11-15 22:12:42.573,1.584298,1.704927,1.713802,1.700427
2020-11-15 22:12:42.590,1.587298,1.706677,1.710927,1.699427
2020-11-15 22:12:42.607,1.584923,1.715177,1.713927,1.698427
2020-11-15 22:12:42.624,1.585548,1.712552,1.716552,1.698927
2020-11-15 22:12:42.641,1.584923,1.711927,1.726178,1.699302
2020-11-15 22:12:42.658,1.584673,1.707052,1.720928,1.700802
2020-11-15 22:12:42.675,1.583923,1.700177,1.718927,1.700802
2020-11-15 22:12:42.692,1.585298,1.704802,1.710927,1.699427
2020-11-15 22:12:42.709,1.587048,1.707427,1.714177,1.699552
2020-11-15 22:12:42.726,1.585048,1.716552,1.714427,1.698677
2020-11-15 22:12:42.743,1.585673,1.712052,1.723428,1.699052
2020-11-15 22:12:42.760,1.585923,1.711677,1.721303,1.699427
2020-11-15 22:12:42.777,1.586173,1.704927,1.720678,1.701177
2020-11-15 22:12:42.794,1.585298,1.702302,1.716802,1.700302
2020-11-15 22:12:42.811,1.586423,1.704302,1.708177,1.699927
2020-11-15 22:12:42.828,1.586923,1.707302,1.714302,1.698302
2020-11-15 22:12:42.846,1.585548,1.717052,1.715427,1.698427
2020-11-15 22:12:42.863,1.585423,1.711552,1.724553,1.698802
2020-11-15 22:12:42.880,1.584548,1.710552,1.721553,1.700677
2020-11-15 22:12:42.897,1.583548,1.699552,1.721428,1.700552
2020-11-15 22:12:42.914,1.584673,1.704927,1.714677,1.700177
2020-11-15 22:12:42.931,1.586798,1.706177,1.710427,1.699052
2020-11-15 22:12:42.949,1.585548,1.709177,1.713427,1.698802
2020-11-15 22:12:42.966,1.585048,1.717302,1.714052,1.698802
2020-11-15 22:12:42.983,1.583673,1.711802,1.721928,1.699552
2020-11-15 22:12:43.000,1.584173,1.709677,1.721428,1.700677
2020-11-15 22:12:43.017,1.585173,1.701677,1.719927,1.700677
2020-11-15 22:12:43.034,1.583423,1.703552,1.716802,1.700052
2020-11-15 22:12:43.051,1.586423,1.705177,1.706927,1.699427
2020-11-15 22:12:43.068,1.583923,1.710427,1.713927,1.698677
2020-11-15 22:12:43.085,1.586173,1.714677,1.717927,1.698427
2020-11-15 22:12:43.102,1.585048,1.711677,1.727053,1.698927
2020-11-15 22:12:43.119,1.585298,1.708677,1.721178,1.699552
2020-11-15 22:12:43.136,1.584798,1.699677,1.719177,1.700177
2020-11-15 22:12:43.153,1.586423,1.704927,1.710677,1.699677
2020-11-15 22:12:43.170,1.586048,1.704677,1.713302,1.699927
2020-11-15 22:12:43.188,1.585548,1.713427,1.714302,1.698177
2020-11-15 22:12:43.205,1.584923,1.711677,1.719427,1.699302
2020-11-15 22:12:43.222,1.584798,1.711427,1.724803,1.698927
2020-11-15 22:12:43.239,1.584673,1.707802,1.720428,1.699927
2020-11-15 22:12:43.256,1.583673,1.698927,1.717927,1.699802
2020-11-15 22:12:43.273,1.585048,1.704677,1.709552,1.699802
2020-11-15 22:12:43.290,1.586923,1.705927,1.713677,1.698802
2020-11-15 22:12:43.307,1.585673,1.714177,1.714427,1.699302
2020-11-15 22:12:43.324,1.584923,1.711177,1.721428,1.699552
2020-11-15 22:12:43.341,1.585548,1.710552,1.721928,1.700052
2020-11-15 22:12:43.358,1.584673,1.701802,1.720302,1.701177
2020-11-15 22:12:43.375,1.583923,1.704677,1.717427,1.699677
2020-11-15 22:12:43.392,1.585423,1.704927,1.708052,1.700177
2020-11-15 22:12:43.409,1.585923,1.710052,1.714052,1.698802
2020-11-15 22:12:43.426,1.585423,1.715427,1.714552,1.699552
2020-11-15 22:12:43.443,1.585423,1.711427,1.722928,1.699052
2020-11-15 22:12:43.460,1.584298,1.710052,1.720678,1.699927
2020-11-15 22:12:43.477,1.583673,1.700427,1.719552,1.700677
2020-11-15 22:12:43.494,1.585298,1.704177,1.711427,1.699802
2020-11-15 22:12:43.511,1.587798,1.705177,1.713802,1.699552
2020-11-15 22:12:43.528,1.585173,1.712302,1.714052,1.698552
2020-11-15 22:12:43.545,1.585548,1.712177,1.718552,1.698927
2020-11-15 22:12:43.562,1.585423,1.711177,1.725428,1.699302
2020-11-15 22:12:43.579,1.585173,1.707927,1.720177,1.700052
2020-11-15 22:12:43.596,1.585298,1.698302,1.718052,1.699177
2020-11-15 22:12:43.613,1.585173,1.704302,1.709677,1.699552
2020-11-15 22:12:43.630,1.585423,1.704927,1.712677,1.698427
2020-11-15 22:12:43.647,1.585298,1.713427,1.714177,1.698927
2020-11-15 22:12:43.664,1.585423,1.711677,1.720928,1.699177
2020-11-15 22:12:43.681,1.585298,1.710677,1.722303,1.699177
2020-11-15 22:12:43.698,1.585298,1.701927,1.720302,1.701552
2020-11-15 22:12:43.715,1.584423,1.704677,1.717552,1.699802
2020-11-15 22:12:43.732,1.585923,1.704802,1.707927,1.699302
2020-11-15 22:12:43.749,1.585048,1.709927,1.713302,1.698552
2020-11-15 22:12:43.766,1.584548,1.714552,1.713552,1.698427
2020-11-15 22:12:43.785,1.585798,1.711802,1.716802,1.698802
2020-11-15 22:12:43.802,1.585048,1.711552,1.726553,1.699427
2020-11-15 22:12:43.819,1.584298,1.704802,1.719677,1.700552
2020-11-15 22:12:43.836,1.583923,1.702927,1.718177,1.699927
2020-11-15 22:12:43.853,1.584798,1.704927,1.709802,1.700427
2020-11-15 22:12:43.870,1.586798,1.708177,1.713802,1.698927
2020-11-15 22:12:43.887,1.584798,1.717177,1.715177,1.699302
2020-11-15 22:12:43.904,1.584923,1.711552,1.724803,1.698927
2020-11-15 22:12:43.921,1.585298,1.710552,1.720678,1.699552
2020-11-15 22:12:43.938,1.584298,1.702052,1.720803,1.701552
2020-11-15 22:12:43.955,1.585298,1.704302,1.714677,1.699927
2020-11-15 22:12:43.973,1.586673,1.704677,1.710802,1.699552
2020-11-15 22:12:43.990,1.584798,1.708677,1.713552,1.698552
2020-11-15 22:12:44.007,1.586173,1.716802,1.716802,1.698927
2020-11-15 22:12:44.024,1.584298,1.711177,1.726053,1.698802
2020-11-15 22:12:44.041,1.584798,1.709802,1.720928,1.699927
2020-11-15 22:12:44.058,1.584048,1.700927,1.719927,1.700302
2020-11-15 22:12:44.075,1.584298,1.703927,1.712052,1.699802
2020-11-15 22:12:44.092,1.586798,1.704927,1.713302,1.698927
2020-11-15 22:12:44.109,1.585548,1.710927,1.714052,1.697677
2020-11-15 22:12:44.126,1.585673,1.714177,1.717552,1.699052
2020-11-15 22:12:44.143,1.584798,1.711052,1.726678,1.698552
2020-11-15 22:12:44.160,1.584423,1.708052,1.720428,1.701552
2020-11-15 22:12:44.177,1.585673,1.702302,1.719052,1.699927
2020-11-15 22:12:44.194,1.583923,1.705052,1.710552,1.700177
2020-11-15 22:12:44.211,1.587173,1.707802,1.712677,1.699052
2020-11-15 22:12:44.228,1.584673,1.716677,1.714052,1.698802
2020-11-15 22:12:44.245,1.584173,1.711802,1.718552,1.699177
2020-11-15 22:12:44.262,1.583298,1.710552,1.723553,1.699302
2020-11-15 22:12:44.279,1.584048,1.703427,1.719677,1.700927
2020-11-15 22:12:44.296,1.583923,1.703927,1.717552,1.699677
2020-11-15 22:12:44.313,1.584173,1.705427,1.709927,1.699552
2020-11-15 22:12:44.330,1.585548,1.708552,1.714177,1.698552
2020-11-15 22:12:44.347,1.585048,1.717802,1.716677,1.698927
2020-11-15 22:12:44.364,1.583923,1.711802,1.725303,1.698802
2020-11-15 22:12:44.381,1.584173,1.710052,1.720803,1.699177
2020-11-15 22:12:44.398,1.583423,1.700927,1.720553,1.700177
2020-11-15 22:12:44.415,1.583423,1.703802,1.713177,1.699677
2020-11-15 22:12:44.432,1.586423,1.704802,1.712427,1.699052
2020-11-15 22:12:44.449,1.584923,1.709927,1.714302,1.697927
2020-11-15 22:12:44.466,1.584923,1.714677,1.716927,1.699052
2020-11-15 22:12:44.483,1.584298,1.711427,1.726928,1.699177
2020-11-15 22:12:44.501,1.583673,1.706177,1.721053,1.701177
2020-11-15 22:12:44.518,1.584423,1.701052,1.719677,1.699552
2020-11-15 22:12:44.535,1.583548,1.704927,1.711427,1.700052
2020-11-15 22:12:44.552,1.586298,1.707427,1.712677,1.698427
2020-11-15 22:12:44.569,1.585298,1.717177,1.713552,1.698552
2020-11-15 22:12:44.586,1.584298,1.711552,1.718552,1.697677
2020-11-15 22:12:44.604,1.583673,1.711302,1.724678,1.699302
2020-11-15 22:12:44.621,1.583548,1.707927,1.720803,1.700427
2020-11-15 22:12:44.638,1.583173,1.699427,1.720052,1.699802
2020-11-15 22:12:44.655,1.584048,1.704927,1.712427,1.700052
2020-11-15 22:12:44.672,1.586548,1.705802,1.713552,1.699677
2020-11-15 22:12:44.689,1.583923,1.714177,1.714052,1.698177
2020-11-15 22:12:44.706,1.584173,1.711802,1.720803,1.699302
2020-11-15 22:12:44.723,1.584423,1.711302,1.722553,1.699052
2020-11-15 22:12:44.740,1.584798,1.706802,1.720428,1.700302
2020-11-15 22:12:44.757,1.583423,1.700302,1.717802,1.699552
2020-11-15 22:12:44.775,1.583048,1.705177,1.710802,1.699802
2020-11-15 22:12:44.792,1.584673,1.707302,1.712927,1.699427
2020-11-15 22:12:44.809,1.584298,1.715427,1.712802,1.698802
2020-11-15 22:12:44.826,1.583798,1.711802,1.723053,1.699427
2020-11-15 22:12:44.843,1.583673,1.711052,1.721178,1.699802
2020-11-15 22:12:44.860,1.584048,1.704802,1.720553,1.700552
2020-11-15 22:12:44.877,1.582548,1.703177,1.716427,1.700052
2020-11-15 22:12:44.894,1.585548,1.705177,1.708177,1.699927
2020-11-15 22:12:44.911,1.586048,1.707677,1.714052,1.698177
2020-11-15 22:12:44.928,1.584798,1.716677,1.716177,1.698927
2020-11-15 22:12:44.945,1.583298,1.710677,1.724678,1.698177
2020-11-15 22:12:44.962,1.585173,1.710177,1.720928,1.698802
2020-11-15 22:12:44.979,1.582298,1.701552,1.720678,1.700802
2020-11-15 22:12:44.996,1.583548,1.703927,1.713677,1.699927
2020-11-15 22:12:45.013,1.586798,1.704177,1.711177,1.699052
2020-11-15 22:12:45.030,1.584798,1.708302,1.713927,1.698302
2020-11-15 22:12:45.047,1.584423,1.715552,1.716302,1.699302
2020-11-15 22:12:45.065,1.584173,1.711302,1.726553,1.699177
2020-11-15 22:12:45.082,1.583173,1.707177,1.720177,1.700302
2020-11-15 22:12:45.099,1.583798,1.699802,1.719552,1.700177
2020-11-15 22:12:45.116,1.583798,1.704427,1.711302,1.700052
2020-11-15 22:12:45.133,1.586173,1.707302,1.712802,1.699677
2020-11-15 22:12:45.150,1.584423,1.715927,1.713677,1.698552
2020-11-15 22:12:45.167,1.585798,1.712927,1.717177,1.698427
2020-11-15 22:12:45.184,1.584173,1.711302,1.726303,1.698802
2020-11-15 22:12:45.201,1.584423,1.705052,1.720052,1.701052
2020-11-15 22:12:45.218,1.582923,1.702552,1.716177,1.699927
2020-11-15 22:12:45.235,1.583298,1.704927,1.707677,1.699927
2020-11-15 22:12:45.252,1.584798,1.707927,1.712552,1.699177
2020-11-15 22:12:45.269,1.582548,1.716552,1.714927,1.699052
2020-11-15 22:12:45.286,1.584673,1.711677,1.724678,1.699302
2020-11-15 22:12:45.303,1.583798,1.710927,1.721178,1.698552
2020-11-15 22:12:45.320,1.582923,1.702177,1.720302,1.701177
2020-11-15 22:12:45.337,1.583548,1.704177,1.714177,1.699677
2020-11-15 22:12:45.354,1.584798,1.705302,1.710927,1.700052
2020-11-15 22:12:45.371,1.585048,1.709177,1.713927,1.698677
2020-11-15 22:12:45.388,1.584423,1.716552,1.717052,1.698302
2020-11-15 22:12:45.405,1.583423,1.710677,1.725678,1.698177
2020-11-15 22:12:45.422,1.582923,1.710302,1.721178,1.699052
2020-11-15 22:12:45.441,1.583923,1.704927,1.719927,1.700302
2020-11-15 22:12:45.458,1.583173,1.700177,1.717052,1.700052
2020-11-15 22:12:45.475,1.583923,1.704677,1.707552,1.700177
2020-11-15 22:12:45.492,1.584548,1.706802,1.714052,1.698927
2020-11-15 22:12:45.509,1.584173,1.716552,1.714802,1.698302
2020-11-15 22:12:45.526,1.583298,1.711302,1.723678,1.698677
2020-11-15 22:12:45.543,1.583548,1.710677,1.721178,1.698802
2020-11-15 22:12:45.560,1.584173,1.703302,1.720678,1.700427
2020-11-15 22:12:45.577,1.582798,1.703802,1.714927,1.699677
2020-11-15 22:12:45.594,1.584548,1.704427,1.709802,1.699302
2020-11-15 22:12:45.611,1.584298,1.707302,1.713677,1.698177
2020-11-15 22:12:45.628,1.583798,1.712177,1.715927,1.698552
2020-11-15 22:12:45.645,1.583798,1.711052,1.724678,1.699052
2020-11-15 22:12:45.663,1.583173,1.708427,1.720928,1.700802
2020-11-15 22:12:45.680,1.582923,1.698927,1.720553,1.700427
2020-11-15 22:12:45.697,1.583048,1.705052,1.712552,1.699677
2020-11-15 22:12:45.714,1.584548,1.706552,1.712427,1.699177
2020-11-15 22:12:45.731,1.584423,1.714927,1.713552,1.698552
2020-11-15 22:12:45.748,1.584923,1.712052,1.716677,1.698677
2020-11-15 22:12:45.765,1.582673,1.711177,1.726428,1.699177
2020-11-15 22:12:45.782,1.582798,1.706177,1.720302,1.701427
2020-11-15 22:12:45.799,1.583798,1.701927,1.717427,1.699927
2020-11-15 22:12:45.816,1.584923,1.704677,1.708302,1.699302
2020-11-15 22:12:45.833,1.585548,1.707052,1.712302,1.698927
2020-11-15 22:12:45.850,1.582798,1.716052,1.713552,1.698427
2020-11-15 22:12:45.867,1.582798,1.711677,1.717552,1.698802
2020-11-15 22:12:45.884,1.583923,1.711302,1.721553,1.699177
2020-11-15 22:12:45.901,1.582923,1.703677,1.720678,1.700927
2020-11-15 22:12:45.918,1.583798,1.704177,1.715802,1.699927
2020-11-15 22:12:45.935,1.585048,1.704677,1.709177,1.700052
2020-11-15 22:12:45.952,1.584548,1.707802,1.713927,1.698677
2020-11-15 22:12:45.969,1.583673,1.717302,1.716802,1.699552
2020-11-15 22:12:45.986,1.584298,1.710927,1.725553,1.698927
2020-11-15 22:12:46.004,1.584048,1.710177,1.721053,1.699302
2020-11-15 22:12:46.021,1.582048,1.701552,1.721178,1.700552
2020-11-15 22:12:46.038,1.583798,1.704427,1.712802,1.699427
2020-11-15 22:12:46.055,1.585298,1.704552,1.712677,1.699177
2020-11-15 22:12:46.072,1.584298,1.709427,1.714427,1.697802
2020-11-15 22:12:46.089,1.583423,1.715052,1.716677,1.698427
2020-11-15 22:12:46.106,1.583173,1.711052,1.726803,1.699802
2020-11-15 22:12:46.123,1.583673,1.706302,1.720803,1.701552
2020-11-15 22:12:46.140,1.582298,1.701427,1.719677,1.700552
2020-11-15 22:12:46.157,1.584298,1.704927,1.710927,1.700052
2020-11-15 22:12:46.174,1.586673,1.708177,1.713052,1.699302
2020-11-15 22:12:46.191,1.584298,1.715552,1.713802,1.698802
2020-11-15 22:12:46.208,1.584048,1.711802,1.718427,1.699052
2020-11-15 22:12:46.225,1.584298,1.711677,1.725678,1.699177
2020-11-15 22:12:46.242,1.583673,1.704427,1.719927,1.699302
2020-11-15 22:12:46.260,1.583923,1.699427,1.719677,1.700427
2020-11-15 22:12:46.278,1.583673,1.704927,1.713052,1.700427
2020-11-15 22:12:46.295,1.585423,1.705927,1.711677,1.699427
2020-11-15 22:12:46.312,1.582548,1.714302,1.713052,1.698302
2020-11-15 22:12:46.329,1.582298,1.712177,1.716052,1.699552
2020-11-15 22:12:46.346,1.584173,1.711302,1.723178,1.700052
2020-11-15 22:12:46.363,1.583548,1.706427,1.720302,1.700427
2020-11-15 22:12:46.380,1.582673,1.700427,1.717927,1.699677
2020-11-15 22:12:46.397,1.584548,1.705052,1.707927,1.699677
2020-11-15 22:12:46.414,1.584423,1.706677,1.713927,1.698802
2020-11-15 22:12:46.431,1.583923,1.715427,1.714552,1.698427
2020-11-15 22:12:46.448,1.584423,1.711802,1.723553,1.698802
2020-11-15 22:12:46.465,1.585173,1.711177,1.721178,1.698927
2020-11-15 22:12:46.482,1.583923,1.703802,1.720052,1.700552
2020-11-15 22:12:46.499,1.583548,1.702677,1.716552,1.699552
2020-11-15 22:12:46.516,1.585423,1.704427,1.708802,1.699302
2020-11-15 22:12:46.533,1.585423,1.707052,1.713552,1.698427
2020-11-15 22:12:46.550,1.584423,1.713052,1.715052,1.698552
2020-11-15 22:12:46.567,1.583923,1.712177,1.724678,1.699427
2020-11-15 22:12:46.584,1.583548,1.708427,1.721178,1.700052
2020-11-15 22:12:46.601,1.583423,1.700052,1.720177,1.700052
2020-11-15 22:12:46.618,1.583673,1.704802,1.714177,1.699802
2020-11-15 22:12:46.635,1.584923,1.705677,1.711427,1.699427
2020-11-15 22:12:46.652,1.582923,1.713552,1.712677,1.698302
2020-11-15 22:12:46.669,1.583798,1.712927,1.716552,1.699427
2020-11-15 22:12:46.686,1.584173,1.711677,1.726428,1.699302
2020-11-15 22:12:46.703,1.583798,1.707302,1.720928,1.700427
2020-11-15 22:12:46.720,1.582298,1.700052,1.719677,1.700302
2020-11-15 22:12:46.738,1.582548,1.704677,1.711302,1.700302
2020-11-15 22:12:46.755,1.586923,1.707302,1.713927,1.699802
2020-11-15 22:12:46.772,1.584548,1.714802,1.715177,1.698427
2020-11-15 22:12:46.789,1.583548,1.712052,1.723303,1.698927
2020-11-15 22:12:46.806,1.584298,1.711552,1.720928,1.699427
2020-11-15 22:12:46.823,1.584548,1.705302,1.720678,1.700802
2020-11-15 22:12:46.840,1.583673,1.702427,1.715927,1.699927
2020-11-15 22:12:46.857,1.586048,1.704677,1.707927,1.699677
2020-11-15 22:12:46.874,1.585798,1.707302,1.713552,1.698927
2020-11-15 22:12:46.891,1.584423,1.717052,1.715302,1.699052
2020-11-15 22:12:46.908,1.581673,1.711302,1.724303,1.698302
2020-11-15 22:12:46.925,1.584048,1.710177,1.721303,1.699802
2020-11-15 22:12:46.942,1.582423,1.699677,1.720428,1.700677
2020-11-15 22:12:46.959,1.583548,1.704552,1.714052,1.699677
2020-11-15 22:12:46.976,1.584673,1.705552,1.710552,1.699552
2020-11-15 22:12:46.993,1.584048,1.713677,1.714177,1.698677
2020-11-15 22:12:47.010,1.583423,1.711927,1.716052,1.698927
2020-11-15 22:12:47.027,1.584423,1.711802,1.726178,1.699677
2020-11-15 22:12:47.044,1.582673,1.707552,1.721053,1.700677
2020-11-15 22:12:47.061,1.582298,1.700177,1.719927,1.700177
2020-11-15 22:12:47.079,1.583673,1.701427,1.716552,1.699552
2020-11-15 22:12:47.097,1.585048,1.704552,1.707802,1.699677
2020-11-15 22:12:47.114,1.583798,1.707427,1.713302,1.698677
2020-11-15 22:12:47.131,1.584048,1.716427,1.716177,1.698302
2020-11-15 22:12:47.148,1.583673,1.711302,1.724178,1.698802
2020-11-15 22:12:47.165,1.585548,1.708802,1.721553,1.700427
2020-11-15 22:12:47.182,1.583798,1.699677,1.720553,1.700052
2020-11-15 22:12:47.199,1.584423,1.704677,1.714677,1.699677
2020-11-15 22:12:47.216,1.585673,1.705802,1.710552,1.699552
2020-11-15 22:12:47.233,1.583798,1.714177,1.713427,1.698677
2020-11-15 22:12:47.250,1.584173,1.711927,1.715302,1.699052
2020-11-15 22:12:47.268,1.584048,1.711677,1.725303,1.699302
2020-11-15 22:12:47.285,1.583173,1.708052,1.720302,1.700802
2020-11-15 22:12:47.302,1.582548,1.699552,1.719927,1.700427
2020-11-15 22:12:47.319,1.582923,1.704927,1.711552,1.700302
2020-11-15 22:12:47.336,1.585173,1.706177,1.712677,1.699677
2020-11-15 22:12:47.353,1.584173,1.715177,1.714177,1.698677
2020-11-15 22:12:47.370,1.582548,1.712302,1.722803,1.699177
2020-11-15 22:12:47.387,1.583548,1.711177,1.721553,1.699552
2020-11-15 22:12:47.404,1.583298,1.705052,1.719927,1.700677
2020-11-15 22:12:47.421,1.582673,1.701302,1.717052,1.699677
2020-11-15 22:12:47.438,1.584548,1.704927,1.708302,1.699927
2020-11-15 22:12:47.455,1.584298,1.706802,1.714427,1.698177
2020-11-15 22:12:47.472,1.583173,1.716302,1.715052,1.699427
2020-11-15 22:12:47.489,1.583173,1.711552,1.724053,1.698927
2020-11-15 22:12:47.506,1.582923,1.708427,1.722178,1.700052
2020-11-15 22:12:47.523,1.583423,1.700427,1.719802,1.700427
2020-11-15 22:12:47.540,1.582423,1.704552,1.715552,1.700552
2020-11-15 22:12:47.557,1.583673,1.705177,1.710302,1.699552
2020-11-15 22:12:47.574,1.582798,1.713177,1.713427,1.698552
2020-11-15 22:12:47.591,1.582173,1.712552,1.716177,1.699552
2020-11-15 22:12:47.608,1.584298,1.711427,1.725178,1.699302
2020-11-15 22:12:47.625,1.582923,1.708177,1.720177,1.701177
2020-11-15 22:12:47.642,1.582298,1.699427,1.718677,1.699927
2020-11-15 22:12:47.659,1.583798,1.705052,1.709177,1.699927
2020-11-15 22:12:47.676,1.584173,1.705927,1.714052,1.699177
2020-11-15 22:12:47.693,1.583548,1.715677,1.714427,1.697927
2020-11-15 22:12:47.710,1.583798,1.712427,1.722553,1.699302
2020-11-15 22:12:47.727,1.584048,1.711302,1.720803,1.699052
2020-11-15 22:12:47.744,1.583173,1.705552,1.720553,1.700052
2020-11-15 22:12:47.761,1.582923,1.701302,1.717552,1.699927
2020-11-15 22:12:47.778,1.584423,1.704802,1.707802,1.699427
2020-11-15 22:12:47.795,1.583548,1.706677,1.713802,1.698802
2020-11-15 22:12:47.812,1.582923,1.714427,1.715427,1.699552
2020-11-15 22:12:47.829,1.582798,1.711427,1.723803,1.699427
2020-11-15 22:12:47.846,1.582673,1.709552,1.721053,1.700177
2020-11-15 22:12:47.863,1.584173,1.700552,1.720177,1.699927
2020-11-15 22:12:47.880,1.581798,1.704552,1.715802,1.700552
2020-11-15 22:12:47.897,1.585923,1.705927,1.710052,1.698927
2020-11-15 22:12:47.916,1.584173,1.708552,1.713302,1.698927
2020-11-15 22:12:47.933,1.584298,1.717677,1.713802,1.699177
2020-11-15 22:12:47.950,1.583548,1.711427,1.720428,1.698802
2020-11-15 22:12:47.967,1.583423,1.710427,1.721428,1.700302
2020-11-15 22:12:47.984,1.582798,1.702052,1.720553,1.701302
2020-11-15 22:12:48.001,1.583298,1.704802,1.713052,1.699802
2020-11-15 22:12:48.018,1.584548,1.704677,1.712927,1.699802
2020-11-15 22:12:48.035,1.584798,1.709927,1.714302,1.698052
2020-11-15 22:12:48.052,1.583423,1.714677,1.716677,1.698677
2020-11-15 22:12:48.069,1.583423,1.710927,1.726678,1.698677
2020-11-15 22:12:48.086,1.583798,1.708677,1.721178,1.700052
2020-11-15 22:12:48.103,1.583548,1.700302,1.719552,1.700302
2020-11-15 22:12:48.120,1.583548,1.704177,1.710927,1.699677
2020-11-15 22:12:48.137,1.585923,1.704427,1.713302,1.699052
2020-11-15 22:12:48.154,1.584298,1.712427,1.714052,1.698927
2020-11-15 22:12:48.171,1.584673,1.712302,1.718677,1.699302
2020-11-15 22:12:48.188,1.582298,1.711927,1.725678,1.699802
2020-11-15 22:12:48.205,1.583298,1.704052,1.720428,1.700927
2020-11-15 22:12:48.222,1.582923,1.704177,1.718302,1.699802
2020-11-15 22:12:48.239,1.583423,1.704927,1.709677,1.700052
2020-11-15 22:12:48.256,1.585298,1.708302,1.712552,1.699052
2020-11-15 22:12:48.273,1.583673,1.716927,1.713552,1.698927
2020-11-15 22:12:48.290,1.583048,1.711677,1.725678,1.699302
2020-11-15 22:12:48.307,1.583548,1.710927,1.721678,1.700177
2020-11-15 22:12:48.325,1.583798,1.702052,1.720678,1.701177
2020-11-15 22:12:48.342,1.582923,1.704302,1.717302,1.700177
2020-11-15 22:12:48.359,1.585298,1.704927,1.707677,1.699802
2020-11-15 22:12:48.376,1.584798,1.710427,1.713302,1.698677
2020-11-15 22:12:48.393,1.581673,1.716052,1.714052,1.698302
2020-11-15 22:12:48.410,1.581798,1.711552,1.723303,1.698802
2020-11-15 22:12:48.427,1.583298,1.709052,1.720803,1.699927
2020-11-15 22:12:48.444,1.582048,1.700552,1.720302,1.700302
2020-11-15 22:12:48.461,1.583173,1.704177,1.710802,1.699677
2020-11-15 22:12:48.478,1.585798,1.704802,1.712802,1.698927
2020-11-15 22:12:48.495,1.582923,1.712177,1.714552,1.698552
2020-11-15 22:12:48.512,1.584173,1.712052,1.718552,1.698677
2020-11-15 22:12:48.529,1.583548,1.710802,1.725678,1.698052
2020-11-15 22:12:48.546,1.583673,1.707802,1.720177,1.700052
2020-11-15 22:12:48.563,1.582673,1.698677,1.718677,1.699927
2020-11-15 22:12:48.580,1.583423,1.704802,1.710302,1.699802
2020-11-15 22:12:48.597,1.585048,1.708802,1.713177,1.698927
2020-11-15 22:12:48.614,1.584673,1.717052,1.713677,1.699177
2020-11-15 22:12:48.631,1.583923,1.711677,1.720302,1.699302
2020-11-15 22:12:48.648,1.584298,1.710302,1.722428,1.699177
2020-11-15 22:12:48.665,1.583048,1.702427,1.720177,1.701427
2020-11-15 22:12:48.682,1.583548,1.704177,1.717302,1.699927
2020-11-15 22:12:48.699,1.583423,1.705677,1.708177,1.699552
2020-11-15 22:12:48.716,1.583298,1.709802,1.713427,1.698427
2020-11-15 22:12:48.733,1.583298,1.715177,1.713177,1.698427
2020-11-15 22:12:48.752,1.584423,1.712302,1.717677,1.699302
