Datetime,chan0,chan1,chan2,chan3
2020-11-15 22:22:15.239,1.586923,1.696802,1.706052,1.693302
2020-11-15 22:22:15.256,1.590549,1.698552,1.703302,1.692427
2020-11-15 22:22:15.273,1.587048,1.707177,1.705427,1.691427
2020-11-15 22:22:15.290,1.586923,1.704177,1.713427,1.690427
2020-11-15 22:22:15.307,1.585548,1.702802,1.718177,1.693302
2020-11-15 22:22:15.325,1.585923,1.701427,1.713177,1.693302
2020-11-15 22:22:15.343,1.586048,1.693052,1.712802,1.693677
2020-11-15 22:22:15.360,1.586173,1.696677,1.704177,1.692927
2020-11-15 22:22:15.377,1.590424,1.697177,1.705552,1.693177
2020-11-15 22:22:15.394,1.588173,1.703302,1.706427,1.691427
2020-11-15 22:22:15.411,1.587923,1.706552,1.709802,1.691302
2020-11-15 22:22:15.428,1.585673,1.703302,1.719927,1.691177
2020-11-15 22:22:15.445,1.585548,1.700302,1.713427,1.693802
2020-11-15 22:22:15.462,1.585923,1.693552,1.712052,1.693552
2020-11-15 22:22:15.479,1.586423,1.697177,1.703302,1.693302
2020-11-15 22:22:15.496,1.590924,1.699677,1.705177,1.692052
2020-11-15 22:22:15.513,1.587298,1.708677,1.706052,1.692177
2020-11-15 22:22:15.530,1.586548,1.705052,1.710677,1.692052
2020-11-15 22:22:15.547,1.585798,1.703427,1.713927,1.692177
2020-11-15 22:22:15.564,1.585798,1.696302,1.712677,1.694302
2020-11-15 22:22:15.581,1.586923,1.694927,1.709177,1.693052
2020-11-15 22:22:15.598,1.589299,1.696427,1.700177,1.692927
2020-11-15 22:22:15.615,1.588548,1.699927,1.706552,1.691177
2020-11-15 22:22:15.632,1.587673,1.709177,1.708552,1.692177
2020-11-15 22:22:15.649,1.586048,1.703927,1.717302,1.692177
2020-11-15 22:22:15.665,1.585298,1.701052,1.714177,1.693677
2020-11-15 22:22:15.682,1.585673,1.691677,1.712802,1.693677
2020-11-15 22:22:15.699,1.586173,1.696427,1.707427,1.692802
2020-11-15 22:22:15.716,1.588173,1.697552,1.701302,1.692427
2020-11-15 22:22:15.733,1.587548,1.706177,1.706677,1.691052
2020-11-15 22:22:15.750,1.588048,1.704552,1.712177,1.692552
2020-11-15 22:22:15.767,1.585798,1.703552,1.718177,1.691927
2020-11-15 22:22:15.784,1.586048,1.699677,1.713052,1.693302
2020-11-15 22:22:15.801,1.586048,1.690802,1.711052,1.692302
2020-11-15 22:22:15.818,1.587923,1.696177,1.701802,1.693427
2020-11-15 22:22:15.835,1.590174,1.700677,1.706177,1.692302
2020-11-15 22:22:15.852,1.587798,1.710552,1.706427,1.691802
2020-11-15 22:22:15.869,1.587173,1.704802,1.713802,1.692177
2020-11-15 22:22:15.886,1.585298,1.703177,1.716552,1.692552
2020-11-15 22:22:15.903,1.585548,1.694177,1.712427,1.694927
2020-11-15 22:22:15.920,1.585798,1.696177,1.709802,1.692927
2020-11-15 22:22:15.937,1.587798,1.697552,1.703177,1.692927
2020-11-15 22:22:15.954,1.588298,1.701427,1.706552,1.691552
2020-11-15 22:22:15.971,1.587673,1.709677,1.709302,1.692427
2020-11-15 22:22:15.988,1.585798,1.703677,1.718927,1.691927
2020-11-15 22:22:16.005,1.585923,1.701927,1.713427,1.692052
2020-11-15 22:22:16.022,1.585423,1.693177,1.713177,1.693052
2020-11-15 22:22:16.039,1.586673,1.697177,1.704677,1.693427
2020-11-15 22:22:16.056,1.590799,1.698802,1.704552,1.692302
2020-11-15 22:22:16.073,1.587923,1.708677,1.706927,1.691302
2020-11-15 22:22:16.090,1.587923,1.704802,1.709302,1.692052
2020-11-15 22:22:16.107,1.585548,1.704427,1.718802,1.692677
2020-11-15 22:22:16.124,1.585548,1.699052,1.713177,1.694927
2020-11-15 22:22:16.141,1.584923,1.692552,1.709677,1.692802
2020-11-15 22:22:16.159,1.585548,1.696802,1.702927,1.693802
2020-11-15 22:22:16.176,1.589424,1.697052,1.706427,1.692427
2020-11-15 22:22:16.193,1.588673,1.704052,1.706677,1.691427
2020-11-15 22:22:16.210,1.587298,1.706552,1.710552,1.691927
2020-11-15 22:22:16.227,1.585298,1.703677,1.719427,1.691552
2020-11-15 22:22:16.244,1.585798,1.700552,1.713302,1.694052
2020-11-15 22:22:16.261,1.585798,1.691052,1.712052,1.693927
2020-11-15 22:22:16.278,1.587673,1.697177,1.702552,1.693177
2020-11-15 22:22:16.295,1.590924,1.700677,1.705677,1.692552
2020-11-15 22:22:16.312,1.587923,1.709552,1.706302,1.691677
2020-11-15 22:22:16.329,1.587423,1.704052,1.710427,1.691677
2020-11-15 22:22:16.346,1.585173,1.703802,1.718677,1.692927
2020-11-15 22:22:16.364,1.586298,1.696427,1.712427,1.694552
2020-11-15 22:22:16.381,1.585173,1.695677,1.710552,1.693552
2020-11-15 22:22:16.398,1.587923,1.697302,1.700677,1.692802
2020-11-15 22:22:16.415,1.588173,1.700677,1.706427,1.691427
2020-11-15 22:22:16.432,1.588298,1.710302,1.708927,1.691927
2020-11-15 22:22:16.449,1.586048,1.704052,1.717677,1.691802
2020-11-15 22:22:16.466,1.585923,1.702677,1.715052,1.692427
2020-11-15 22:22:16.483,1.585548,1.693802,1.713052,1.694302
2020-11-15 22:22:16.499,1.585798,1.695677,1.707052,1.693552
2020-11-15 22:22:16.516,1.589424,1.698552,1.702677,1.693052
2020-11-15 22:22:16.533,1.588423,1.706927,1.706927,1.691302
2020-11-15 22:22:16.550,1.588173,1.704302,1.709427,1.692802
2020-11-15 22:22:16.567,1.585923,1.704677,1.718427,1.692052
2020-11-15 22:22:16.584,1.584548,1.700302,1.713302,1.693177
2020-11-15 22:22:16.601,1.584923,1.690427,1.712677,1.693677
2020-11-15 22:22:16.618,1.587048,1.697552,1.701927,1.693177
2020-11-15 22:22:16.635,1.588923,1.698052,1.705927,1.692552
2020-11-15 22:22:16.652,1.588298,1.707552,1.707052,1.690927
2020-11-15 22:22:16.669,1.586798,1.704677,1.714927,1.691802
2020-11-15 22:22:16.686,1.586048,1.703677,1.714802,1.691927
2020-11-15 22:22:16.703,1.585548,1.698052,1.713427,1.694802
2020-11-15 22:22:16.720,1.585923,1.691802,1.710302,1.693302
2020-11-15 22:22:16.737,1.589048,1.697677,1.700802,1.693177
2020-11-15 22:22:16.754,1.588923,1.702177,1.706052,1.692552
2020-11-15 22:22:16.771,1.587298,1.709427,1.707302,1.691802
2020-11-15 22:22:16.788,1.586548,1.703677,1.715427,1.692177
2020-11-15 22:22:16.805,1.584923,1.702427,1.713927,1.692927
2020-11-15 22:22:16.822,1.585798,1.692927,1.712802,1.694052
2020-11-15 22:22:16.839,1.586923,1.696927,1.704052,1.693302
2020-11-15 22:22:16.856,1.590674,1.697177,1.705677,1.692302
2020-11-15 22:22:16.873,1.588423,1.703927,1.706552,1.690677
2020-11-15 22:22:16.890,1.587048,1.707552,1.710552,1.691052
2020-11-15 22:22:16.907,1.585423,1.703677,1.719927,1.691802
2020-11-15 22:22:16.924,1.586423,1.700802,1.713177,1.694427
2020-11-15 22:22:16.941,1.585798,1.693927,1.712052,1.693802
2020-11-15 22:22:16.958,1.586298,1.697177,1.702677,1.693052
2020-11-15 22:22:16.975,1.591049,1.697177,1.701302,1.693427
2020-11-15 22:22:16.994,1.588923,1.705052,1.706177,1.691427
2020-11-15 22:22:17.011,1.587423,1.706177,1.708302,1.692052
2020-11-15 22:22:17.028,1.587173,1.703927,1.717552,1.692802
2020-11-15 22:22:17.045,1.585673,1.700802,1.713052,1.693677
2020-11-15 22:22:17.062,1.585673,1.691552,1.711302,1.693677
2020-11-15 22:22:17.079,1.587173,1.696927,1.702677,1.692927
2020-11-15 22:22:17.095,1.590174,1.697427,1.705677,1.692802
2020-11-15 22:22:17.112,1.588298,1.706552,1.706927,1.690677
2020-11-15 22:22:17.129,1.587298,1.704302,1.713177,1.691552
2020-11-15 22:22:17.146,1.584548,1.703552,1.716802,1.693177
2020-11-15 22:22:17.163,1.586673,1.694552,1.713302,1.694427
2020-11-15 22:22:17.180,1.585048,1.696427,1.710302,1.693302
2020-11-15 22:22:17.197,1.587798,1.697677,1.701052,1.693552
2020-11-15 22:22:17.214,1.588423,1.701177,1.705302,1.692302
2020-11-15 22:22:17.232,1.588173,1.708427,1.707552,1.692302
2020-11-15 22:22:17.249,1.586298,1.703677,1.714177,1.692052
2020-11-15 22:22:17.266,1.585673,1.702927,1.715052,1.693052
2020-11-15 22:22:17.283,1.585548,1.693677,1.713052,1.694552
2020-11-15 22:22:17.300,1.585798,1.696802,1.708677,1.693302
2020-11-15 22:22:17.317,1.588173,1.697177,1.699552,1.693052
2020-11-15 22:22:17.334,1.587673,1.702177,1.706802,1.691552
2020-11-15 22:22:17.351,1.586798,1.708552,1.708552,1.691052
2020-11-15 22:22:17.368,1.585798,1.704052,1.719677,1.691302
2020-11-15 22:22:17.385,1.586048,1.701677,1.714052,1.692677
2020-11-15 22:22:17.402,1.585798,1.692052,1.712677,1.693177
2020-11-15 22:22:17.419,1.586923,1.695677,1.703802,1.693177
2020-11-15 22:22:17.436,1.590674,1.699302,1.705552,1.692552
2020-11-15 22:22:17.453,1.587673,1.708302,1.706677,1.691302
2020-11-15 22:22:17.470,1.588173,1.705052,1.710052,1.692552
2020-11-15 22:22:17.487,1.585423,1.704052,1.719802,1.692302
2020-11-15 22:22:17.504,1.585548,1.697177,1.713052,1.693927
2020-11-15 22:22:17.520,1.585173,1.693927,1.709177,1.693552
2020-11-15 22:22:17.538,1.589424,1.697052,1.699927,1.692677
2020-11-15 22:22:17.555,1.588298,1.699927,1.706427,1.691927
2020-11-15 22:22:17.571,1.586548,1.708802,1.707302,1.690927
2020-11-15 22:22:17.588,1.586923,1.704552,1.716552,1.691552
2020-11-15 22:22:17.605,1.584423,1.703177,1.713677,1.693552
2020-11-15 22:22:17.622,1.585673,1.691427,1.713177,1.693677
2020-11-15 22:22:17.639,1.586798,1.697052,1.707677,1.693677
2020-11-15 22:22:17.656,1.589048,1.697052,1.700677,1.692802
2020-11-15 22:22:17.673,1.587798,1.704927,1.706427,1.691427
2020-11-15 22:22:17.690,1.587548,1.705552,1.707427,1.691427
2020-11-15 22:22:17.707,1.586298,1.703552,1.719677,1.691927
2020-11-15 22:22:17.724,1.586048,1.700802,1.713552,1.693552
2020-11-15 22:22:17.741,1.586048,1.691177,1.710677,1.692427
2020-11-15 22:22:17.758,1.587423,1.696802,1.702052,1.692677
2020-11-15 22:22:17.775,1.589799,1.697177,1.705927,1.691927
2020-11-15 22:22:17.792,1.588423,1.705927,1.706802,1.690552
2020-11-15 22:22:17.810,1.587298,1.709802,1.709427,1.692302
2020-11-15 22:22:17.827,1.585548,1.704427,1.718802,1.692177
2020-11-15 22:22:17.844,1.586048,1.699802,1.713552,1.694052
2020-11-15 22:22:17.861,1.586548,1.691177,1.712427,1.693302
2020-11-15 22:22:17.878,1.586048,1.697177,1.704427,1.692802
2020-11-15 22:22:17.895,1.590674,1.698302,1.703927,1.693052
2020-11-15 22:22:17.912,1.587173,1.707927,1.706677,1.691427
2020-11-15 22:22:17.929,1.586548,1.704677,1.713802,1.692052
2020-11-15 22:22:17.946,1.585173,1.704177,1.715177,1.692177
2020-11-15 22:22:17.963,1.585298,1.698302,1.713177,1.693052
2020-11-15 22:22:17.980,1.585298,1.691802,1.710302,1.693052
2020-11-15 22:22:17.997,1.588923,1.696927,1.700052,1.693052
2020-11-15 22:22:18.014,1.587923,1.702552,1.706177,1.691177
2020-11-15 22:22:18.031,1.587798,1.709052,1.707302,1.692177
2020-11-15 22:22:18.048,1.586798,1.704052,1.716302,1.692427
2020-11-15 22:22:18.065,1.585423,1.701677,1.713552,1.693052
2020-11-15 22:22:18.082,1.585798,1.693427,1.712802,1.693427
2020-11-15 22:22:18.099,1.584798,1.696552,1.703802,1.693302
2020-11-15 22:22:18.116,1.589799,1.697802,1.705802,1.692177
2020-11-15 22:22:18.133,1.588048,1.703427,1.706552,1.690927
2020-11-15 22:22:18.150,1.587673,1.707052,1.710302,1.691927
2020-11-15 22:22:18.167,1.585173,1.703802,1.720177,1.691427
2020-11-15 22:22:18.184,1.586423,1.700802,1.713302,1.694552
2020-11-15 22:22:18.201,1.585923,1.693927,1.712052,1.693177
2020-11-15 22:22:18.218,1.586798,1.697302,1.702677,1.693302
2020-11-15 22:22:18.235,1.589924,1.699302,1.705302,1.692427
2020-11-15 22:22:18.252,1.588298,1.709552,1.706302,1.691677
2020-11-15 22:22:18.269,1.587298,1.704052,1.710927,1.692177
2020-11-15 22:22:18.286,1.584923,1.703427,1.717802,1.692177
2020-11-15 22:22:18.303,1.586048,1.696427,1.712677,1.694427
2020-11-15 22:22:18.320,1.586173,1.695927,1.708177,1.692927
2020-11-15 22:22:18.337,1.589424,1.696927,1.700802,1.692927
2020-11-15 22:22:18.354,1.588423,1.700177,1.706552,1.691302
2020-11-15 22:22:18.371,1.588173,1.709927,1.708802,1.691927
2020-11-15 22:22:18.388,1.585673,1.704052,1.718552,1.692302
2020-11-15 22:22:18.405,1.585923,1.700427,1.714427,1.693927
2020-11-15 22:22:18.422,1.586048,1.691552,1.713052,1.693427
2020-11-15 22:22:18.439,1.585798,1.697052,1.706302,1.693427
2020-11-15 22:22:18.456,1.590174,1.698177,1.702552,1.692927
2020-11-15 22:22:18.473,1.587673,1.706927,1.705927,1.691802
2020-11-15 22:22:18.490,1.587173,1.704427,1.713177,1.692052
2020-11-15 22:22:18.507,1.585798,1.703677,1.717427,1.692302
2020-11-15 22:22:18.524,1.586298,1.699552,1.713177,1.693927
2020-11-15 22:22:18.541,1.585423,1.691052,1.710677,1.692802
2020-11-15 22:22:18.558,1.587798,1.696927,1.701677,1.692677
2020-11-15 22:22:18.575,1.589173,1.698302,1.705927,1.691927
2020-11-15 22:22:18.592,1.588923,1.710052,1.707302,1.692302
2020-11-15 22:22:18.609,1.586923,1.704427,1.714427,1.692427
2020-11-15 22:22:18.626,1.584798,1.702802,1.719302,1.692552
2020-11-15 22:22:18.644,1.585548,1.698927,1.713427,1.694677
2020-11-15 22:22:18.661,1.586298,1.693052,1.712052,1.693552
2020-11-15 22:22:18.678,1.586923,1.697427,1.702302,1.693177
2020-11-15 22:22:18.695,1.589924,1.699677,1.706552,1.692427
2020-11-15 22:22:18.712,1.587923,1.708427,1.707677,1.692052
2020-11-15 22:22:18.729,1.586673,1.704302,1.716677,1.691802
2020-11-15 22:22:18.746,1.585673,1.703052,1.714302,1.692802
2020-11-15 22:22:18.763,1.585548,1.696552,1.712927,1.693927
2020-11-15 22:22:18.780,1.586923,1.693677,1.708552,1.693177
2020-11-15 22:22:18.797,1.588798,1.697802,1.700177,1.693427
2020-11-15 22:22:18.814,1.588423,1.704427,1.706302,1.691552
2020-11-15 22:22:18.831,1.587923,1.706677,1.707927,1.691677
2020-11-15 22:22:18.848,1.586048,1.704052,1.717552,1.692427
2020-11-15 22:22:18.865,1.585173,1.701302,1.713677,1.693552
2020-11-15 22:22:18.882,1.585548,1.691927,1.712302,1.694177
2020-11-15 22:22:18.899,1.585298,1.696552,1.702802,1.693677
2020-11-15 22:22:18.916,1.590799,1.697177,1.705927,1.692927
2020-11-15 22:22:18.933,1.587923,1.705302,1.706677,1.691302
2020-11-15 22:22:18.950,1.587048,1.704552,1.711677,1.691302
2020-11-15 22:22:18.967,1.585548,1.703177,1.718677,1.692177
2020-11-15 22:22:18.984,1.586298,1.699927,1.713052,1.694802
2020-11-15 22:22:19.001,1.586048,1.696677,1.710677,1.693302
2020-11-15 22:22:19.018,1.587798,1.697177,1.701427,1.692927
2020-11-15 22:22:19.034,1.589048,1.701052,1.706052,1.691927
2020-11-15 22:22:19.051,1.587048,1.709802,1.707052,1.692427
2020-11-15 22:22:19.069,1.586423,1.704677,1.713552,1.691802
2020-11-15 22:22:19.086,1.585423,1.703052,1.714927,1.692927
2020-11-15 22:22:19.103,1.584798,1.694427,1.713427,1.694427
2020-11-15 22:22:19.120,1.586548,1.696177,1.706177,1.693677
2020-11-15 22:22:19.136,1.589674,1.697052,1.703052,1.692552
2020-11-15 22:22:19.153,1.588173,1.701052,1.706552,1.690552
2020-11-15 22:22:19.170,1.587798,1.709052,1.709302,1.691302
2020-11-15 22:22:19.188,1.586048,1.704052,1.719302,1.691177
2020-11-15 22:22:19.204,1.585673,1.700052,1.714177,1.694177
2020-11-15 22:22:19.221,1.585548,1.691302,1.713177,1.693052
2020-11-15 22:22:19.238,1.586923,1.696802,1.704552,1.692802
2020-11-15 22:22:19.255,1.590174,1.699052,1.704677,1.692552
2020-11-15 22:22:19.272,1.587298,1.707802,1.706302,1.691552
2020-11-15 22:22:19.289,1.587173,1.704802,1.709677,1.692177
2020-11-15 22:22:19.306,1.585798,1.703802,1.714177,1.692677
2020-11-15 22:22:19.323,1.585923,1.698177,1.713677,1.694177
2020-11-15 22:22:19.340,1.585673,1.693177,1.709927,1.693177
2020-11-15 22:22:19.357,1.589173,1.696677,1.699927,1.692177
2020-11-15 22:22:19.374,1.587798,1.699552,1.706427,1.692177
2020-11-15 22:22:19.391,1.587673,1.708552,1.707302,1.691177
2020-11-15 22:22:19.408,1.585673,1.703302,1.717052,1.692427
2020-11-15 22:22:19.425,1.585423,1.701677,1.713802,1.693677
2020-11-15 22:22:19.442,1.585798,1.692927,1.713177,1.693427
2020-11-15 22:22:19.460,1.586048,1.695302,1.711552,1.693427
2020-11-15 22:22:19.478,1.587548,1.697927,1.702052,1.693302
2020-11-15 22:22:19.495,1.589299,1.700802,1.705427,1.692052
2020-11-15 22:22:19.512,1.587673,1.709677,1.705677,1.692177
2020-11-15 22:22:19.529,1.586923,1.704677,1.712927,1.692052
2020-11-15 22:22:19.546,1.586048,1.703302,1.716927,1.693302
2020-11-15 22:22:19.563,1.585923,1.694927,1.712927,1.694052
2020-11-15 22:22:19.580,1.585923,1.695927,1.709802,1.693677
2020-11-15 22:22:19.597,1.587423,1.697302,1.701302,1.693302
2020-11-15 22:22:19.614,1.588798,1.701552,1.706552,1.692302
2020-11-15 22:22:19.631,1.587923,1.709802,1.708927,1.691677
2020-11-15 22:22:19.648,1.586048,1.703802,1.718052,1.691927
2020-11-15 22:22:19.665,1.586298,1.702427,1.714052,1.692927
2020-11-15 22:22:19.682,1.586048,1.693177,1.713802,1.694052
2020-11-15 22:22:19.699,1.586923,1.696302,1.705427,1.693677
2020-11-15 22:22:19.716,1.589924,1.698302,1.704177,1.692552
2020-11-15 22:22:19.733,1.587548,1.707677,1.706802,1.691677
2020-11-15 22:22:19.750,1.588048,1.705302,1.709427,1.692302
2020-11-15 22:22:19.767,1.585423,1.703677,1.718927,1.692427
2020-11-15 22:22:19.784,1.585923,1.699177,1.712927,1.694302
2020-11-15 22:22:19.801,1.586048,1.692802,1.710552,1.694177
2020-11-15 22:22:19.818,1.588923,1.697677,1.700427,1.693177
2020-11-15 22:22:19.835,1.588048,1.698927,1.706177,1.691927
2020-11-15 22:22:19.852,1.587798,1.708302,1.707552,1.691677
2020-11-15 22:22:19.869,1.587048,1.704052,1.716302,1.691677
2020-11-15 22:22:19.886,1.585673,1.703177,1.714177,1.692302
2020-11-15 22:22:19.903,1.585423,1.693302,1.712802,1.694177
2020-11-15 22:22:19.920,1.586173,1.696302,1.709302,1.692927
2020-11-15 22:22:19.937,1.589674,1.697427,1.699927,1.692552
2020-11-15 22:22:19.954,1.587673,1.704052,1.706427,1.691552
2020-11-15 22:22:19.971,1.587548,1.707552,1.707552,1.691927
2020-11-15 22:22:19.988,1.585548,1.703677,1.720302,1.692427
2020-11-15 22:22:20.005,1.586548,1.701177,1.713302,1.693552
2020-11-15 22:22:20.022,1.585298,1.692177,1.712302,1.693552
2020-11-15 22:22:20.039,1.587798,1.696802,1.703052,1.693677
2020-11-15 22:22:20.056,1.590174,1.697427,1.706302,1.692677
2020-11-15 22:22:20.073,1.588298,1.705052,1.707052,1.691302
2020-11-15 22:22:20.090,1.587923,1.705302,1.711927,1.691427
2020-11-15 22:22:20.107,1.586048,1.703802,1.719177,1.691802
2020-11-15 22:22:20.124,1.585673,1.696052,1.713677,1.694552
2020-11-15 22:22:20.141,1.585923,1.695552,1.711052,1.693927
2020-11-15 22:22:20.158,1.587423,1.697052,1.701177,1.693052
2020-11-15 22:22:20.175,1.589924,1.700302,1.705427,1.692177
2020-11-15 22:22:20.192,1.587798,1.710302,1.706302,1.692052
2020-11-15 22:22:20.209,1.587048,1.703802,1.718177,1.692552
2020-11-15 22:22:20.225,1.585423,1.703052,1.713927,1.692552
2020-11-15 22:22:20.242,1.585423,1.693427,1.713177,1.694052
2020-11-15 22:22:20.259,1.585423,1.696052,1.706802,1.693802
2020-11-15 22:22:20.276,1.590299,1.696177,1.701177,1.693052
2020-11-15 22:22:20.295,1.588673,1.698677,1.706677,1.692427
2020-11-15 22:22:20.312,1.588423,1.708052,1.707177,1.691802
2020-11-15 22:22:20.329,1.587298,1.704302,1.715177,1.692802
2020-11-15 22:22:20.346,1.585923,1.702802,1.713802,1.693177
2020-11-15 22:22:20.363,1.586298,1.694052,1.712927,1.694052
2020-11-15 22:22:20.380,1.585798,1.696552,1.709677,1.693427
2020-11-15 22:22:20.397,1.589173,1.697552,1.699677,1.693302
2020-11-15 22:22:20.414,1.588173,1.702427,1.706177,1.691552
2020-11-15 22:22:20.431,1.586923,1.707802,1.707927,1.692802
2020-11-15 22:22:20.448,1.587173,1.703677,1.715677,1.691927
2020-11-15 22:22:20.465,1.584298,1.701677,1.713552,1.693052
2020-11-15 22:22:20.482,1.586548,1.692677,1.712177,1.694052
2020-11-15 22:22:20.499,1.586923,1.696552,1.703802,1.693552
2020-11-15 22:22:20.516,1.590424,1.697427,1.705802,1.692677
2020-11-15 22:22:20.533,1.587548,1.704552,1.706927,1.691552
2020-11-15 22:22:20.550,1.587173,1.705177,1.710802,1.691552
2020-11-15 22:22:20.567,1.585673,1.703927,1.718677,1.693177
2020-11-15 22:22:20.584,1.586548,1.696302,1.713177,1.694552
2020-11-15 22:22:20.601,1.584548,1.695677,1.711802,1.693427
2020-11-15 22:22:20.618,1.586923,1.697677,1.701677,1.693177
2020-11-15 22:22:20.635,1.589173,1.700427,1.705052,1.692177
2020-11-15 22:22:20.652,1.587548,1.710552,1.706177,1.691802
2020-11-15 22:22:20.669,1.586173,1.703802,1.717427,1.692052
2020-11-15 22:22:20.686,1.585423,1.703677,1.714802,1.692802
2020-11-15 22:22:20.703,1.585548,1.694552,1.713052,1.693927
2020-11-15 22:22:20.720,1.586798,1.696427,1.707302,1.692802
2020-11-15 22:22:20.737,1.590049,1.697052,1.702427,1.692177
2020-11-15 22:22:20.754,1.587798,1.700927,1.706927,1.691302
2020-11-15 22:22:20.771,1.587673,1.704677,1.709177,1.692177
2020-11-15 22:22:20.788,1.585548,1.703927,1.718302,1.691802
2020-11-15 22:22:20.805,1.585548,1.700552,1.714302,1.694052
2020-11-15 22:22:20.822,1.585423,1.691177,1.712677,1.693427
2020-11-15 22:22:20.839,1.586423,1.696802,1.704927,1.692802
2020-11-15 22:22:20.856,1.590299,1.698552,1.704677,1.692427
2020-11-15 22:22:20.873,1.587548,1.707677,1.706927,1.691552
2020-11-15 22:22:20.889,1.587298,1.705177,1.714177,1.692177
2020-11-15 22:22:20.907,1.585423,1.703677,1.715052,1.692302
2020-11-15 22:22:20.923,1.586048,1.699177,1.713177,1.693552
2020-11-15 22:22:20.940,1.585048,1.692552,1.710177,1.692802
2020-11-15 22:22:20.957,1.588798,1.696802,1.700927,1.692927
2020-11-15 22:22:20.974,1.588173,1.702302,1.705927,1.691427
2020-11-15 22:22:20.991,1.587423,1.709177,1.706927,1.691802
2020-11-15 22:22:21.008,1.586548,1.704177,1.716177,1.692552
2020-11-15 22:22:21.025,1.584673,1.702052,1.713802,1.692927
2020-11-15 22:22:21.042,1.585798,1.693677,1.712302,1.694802
2020-11-15 22:22:21.059,1.585673,1.695927,1.708677,1.693427
2020-11-15 22:22:21.077,1.588673,1.697427,1.699427,1.693177
2020-11-15 22:22:21.094,1.587798,1.704177,1.706177,1.691427
2020-11-15 22:22:21.112,1.587923,1.709677,1.706677,1.691927
2020-11-15 22:22:21.129,1.586923,1.704802,1.717552,1.691802
2020-11-15 22:22:21.146,1.585423,1.703677,1.714177,1.692677
2020-11-15 22:22:21.163,1.585173,1.695552,1.713052,1.694177
2020-11-15 22:22:21.180,1.586048,1.696177,1.708052,1.693427
2020-11-15 22:22:21.197,1.589299,1.696927,1.701927,1.692927
2020-11-15 22:22:21.214,1.588048,1.700302,1.706052,1.691302
2020-11-15 22:22:21.231,1.588173,1.705427,1.708552,1.692302
2020-11-15 22:22:21.248,1.586173,1.704302,1.718677,1.692177
2020-11-15 22:22:21.265,1.585548,1.700427,1.713177,1.693802
2020-11-15 22:22:21.282,1.585673,1.691427,1.712802,1.693427
2020-11-15 22:22:21.299,1.585923,1.696552,1.705177,1.693427
2020-11-15 22:22:21.316,1.590174,1.698927,1.702552,1.693427
2020-11-15 22:22:21.333,1.587923,1.707177,1.706802,1.691177
2020-11-15 22:22:21.350,1.587048,1.704927,1.713302,1.691427
2020-11-15 22:22:21.367,1.585423,1.703552,1.716427,1.692177
2020-11-15 22:22:21.384,1.586673,1.699177,1.713302,1.693427
2020-11-15 22:22:21.401,1.585673,1.691177,1.710677,1.692677
2020-11-15 22:22:21.418,1.587048,1.696177,1.700677,1.692802
2020-11-15 22:22:21.435,1.588423,1.701552,1.705802,1.691427
2020-11-15 22:22:21.452,1.588048,1.709177,1.705677,1.692177
2020-11-15 22:22:21.469,1.586923,1.704552,1.715052,1.692677
2020-11-15 22:22:21.486,1.584798,1.702052,1.713552,1.693302
2020-11-15 22:22:21.502,1.585548,1.693052,1.712302,1.694552
2020-11-15 22:22:21.519,1.587298,1.696552,1.704677,1.692927
2020-11-15 22:22:21.536,1.590674,1.697427,1.705427,1.692552
2020-11-15 22:22:21.553,1.588173,1.703677,1.706552,1.691552
2020-11-15 22:22:21.570,1.587548,1.707552,1.710427,1.691927
2020-11-15 22:22:21.588,1.585798,1.703677,1.720052,1.691677
2020-11-15 22:22:21.605,1.585173,1.700802,1.713177,1.692552
2020-11-15 22:22:21.621,1.585548,1.692302,1.712052,1.693427
2020-11-15 22:22:21.639,1.587548,1.697927,1.703177,1.693427
2020-11-15 22:22:21.655,1.590424,1.700052,1.705677,1.692052
2020-11-15 22:22:21.672,1.587673,1.709052,1.706927,1.691927
2020-11-15 22:22:21.689,1.586173,1.704927,1.711177,1.692052
2020-11-15 22:22:21.706,1.585673,1.704052,1.719052,1.692552
2020-11-15 22:22:21.723,1.585298,1.696427,1.713427,1.694552
2020-11-15 22:22:21.740,1.586423,1.696177,1.708677,1.693927
2020-11-15 22:22:21.757,1.589799,1.697302,1.700927,1.693052
2020-11-15 22:22:21.774,1.588048,1.700052,1.707052,1.691302
2020-11-15 22:22:21.791,1.587798,1.709302,1.709177,1.691552
2020-11-15 22:22:21.808,1.586923,1.703677,1.718177,1.693177
2020-11-15 22:22:21.826,1.585548,1.702927,1.714427,1.692427
2020-11-15 22:22:21.843,1.585423,1.694177,1.713177,1.693802
2020-11-15 22:22:21.860,1.586298,1.696177,1.707677,1.693677
2020-11-15 22:22:21.877,1.589299,1.696552,1.702677,1.692927
2020-11-15 22:22:21.894,1.587673,1.707177,1.706427,1.690677
2020-11-15 22:22:21.911,1.587923,1.704552,1.709302,1.692927
2020-11-15 22:22:21.928,1.586173,1.703677,1.714677,1.692552
2020-11-15 22:22:21.946,1.584673,1.702302,1.714052,1.693177
2020-11-15 22:22:21.963,1.585673,1.693427,1.712927,1.694677
2020-11-15 22:22:21.980,1.585298,1.697052,1.709177,1.693302
2020-11-15 22:22:21.997,1.588798,1.697302,1.705427,1.693177
2020-11-15 22:22:22.014,1.587798,1.702927,1.706677,1.691552
2020-11-15 22:22:22.031,1.586798,1.708302,1.710552,1.691802
2020-11-15 22:22:22.048,1.585798,1.703302,1.720553,1.691927
2020-11-15 22:22:22.065,1.585673,1.701427,1.713677,1.693052
2020-11-15 22:22:22.082,1.585923,1.692052,1.712177,1.693552
2020-11-15 22:22:22.099,1.586798,1.697302,1.702927,1.693302
2020-11-15 22:22:22.116,1.590174,1.699427,1.705552,1.692677
2020-11-15 22:22:22.133,1.588423,1.709552,1.706427,1.692177
2020-11-15 22:22:22.150,1.586548,1.705052,1.710677,1.692427
2020-11-15 22:22:22.167,1.585298,1.704427,1.719052,1.692802
2020-11-15 22:22:22.184,1.585298,1.696302,1.713177,1.694552
2020-11-15 22:22:22.201,1.585673,1.695552,1.708927,1.693302
2020-11-15 22:22:22.218,1.589299,1.696927,1.700552,1.693427
2020-11-15 22:22:22.235,1.587673,1.700427,1.706052,1.691552
2020-11-15 22:22:22.252,1.587173,1.709427,1.708677,1.691677
2020-11-15 22:22:22.269,1.585423,1.703552,1.717302,1.692052
2020-11-15 22:22:22.285,1.584423,1.700677,1.714052,1.693802
2020-11-15 22:22:22.302,1.586173,1.691927,1.713552,1.694552
2020-11-15 22:22:22.319,1.585673,1.697427,1.706927,1.692802
2020-11-15 22:22:22.336,1.589549,1.698302,1.701677,1.692427
2020-11-15 22:22:22.353,1.587548,1.706427,1.706427,1.691052
2020-11-15 22:22:22.370,1.586798,1.705302,1.709302,1.691927
2020-11-15 22:22:22.387,1.584923,1.704052,1.717427,1.692052
2020-11-15 22:22:22.404,1.585923,1.700052,1.713427,1.693677
2020-11-15 22:22:22.421,1.585798,1.690802,1.710677,1.693052
2020-11-15 22:22:22.438,1.587298,1.696552,1.701552,1.693177
2020-11-15 22:22:22.455,1.588798,1.697802,1.706052,1.692427
2020-11-15 22:22:22.472,1.587423,1.706802,1.705552,1.692427
2020-11-15 22:22:22.489,1.586923,1.704802,1.714802,1.692927
2020-11-15 22:22:22.506,1.585298,1.702552,1.714177,1.693052
2020-11-15 22:22:22.523,1.585548,1.693677,1.712802,1.694052
2020-11-15 22:22:22.540,1.585798,1.696552,1.709302,1.693177
2020-11-15 22:22:22.557,1.587048,1.696927,1.699802,1.693177
2020-11-15 22:22:22.574,1.586798,1.702177,1.706677,1.691052
2020-11-15 22:22:22.591,1.586798,1.708677,1.710177,1.692177
2020-11-15 22:22:22.608,1.586423,1.704052,1.719927,1.692177
2020-11-15 22:22:22.625,1.586048,1.701177,1.713302,1.692677
2020-11-15 22:22:22.642,1.586423,1.692177,1.713177,1.693552
2020-11-15 22:22:22.659,1.586673,1.695927,1.703677,1.693427
2020-11-15 22:22:22.676,1.590549,1.700177,1.705802,1.692177
2020-11-15 22:22:22.693,1.587048,1.708552,1.705927,1.691177
2020-11-15 22:22:22.710,1.586423,1.704802,1.710552,1.691677
2020-11-15 22:22:22.727,1.585548,1.703802,1.719802,1.692677
2020-11-15 22:22:22.744,1.585423,1.697177,1.712802,1.692177
2020-11-15 22:22:22.762,1.585173,1.691552,1.712677,1.693802
2020-11-15 22:22:22.779,1.587298,1.697052,1.702052,1.692552
2020-11-15 22:22:22.796,1.589674,1.697302,1.705427,1.692052
2020-11-15 22:22:22.813,1.588548,1.705302,1.707052,1.691052
2020-11-15 22:22:22.830,1.587798,1.703927,1.711927,1.691677
2020-11-15 22:22:22.847,1.585423,1.703802,1.717552,1.691677
2020-11-15 22:22:22.864,1.585423,1.699802,1.712427,1.693177
2020-11-15 22:22:22.881,1.585798,1.690177,1.710927,1.693802
2020-11-15 22:22:22.898,1.588298,1.697427,1.701677,1.692677
2020-11-15 22:22:22.915,1.588423,1.701177,1.705927,1.691802
2020-11-15 22:22:22.932,1.588048,1.709927,1.706677,1.691802
2020-11-15 22:22:22.949,1.586173,1.704052,1.713427,1.692552
2020-11-15 22:22:22.966,1.584923,1.702802,1.714677,1.692927
2020-11-15 22:22:22.983,1.586048,1.694177,1.713677,1.694927
2020-11-15 22:22:23.000,1.586423,1.696552,1.706052,1.693677
2020-11-15 22:22:23.017,1.590424,1.697052,1.704552,1.692802
2020-11-15 22:22:23.034,1.587298,1.702177,1.705802,1.691427
2020-11-15 22:22:23.051,1.587673,1.708552,1.709927,1.690927
2020-11-15 22:22:23.068,1.585673,1.703427,1.719802,1.692302
2020-11-15 22:22:23.085,1.585673,1.699302,1.713177,1.694677
2020-11-15 22:22:23.102,1.586548,1.692552,1.712177,1.693427
2020-11-15 22:22:23.119,1.586548,1.697552,1.703427,1.693552
2020-11-15 22:22:23.136,1.589799,1.699302,1.704677,1.692052
2020-11-15 22:22:23.153,1.587923,1.708552,1.706677,1.691552
2020-11-15 22:22:23.170,1.587048,1.704802,1.716427,1.691677
2020-11-15 22:22:23.187,1.584798,1.703552,1.714552,1.692927
2020-11-15 22:22:23.204,1.585798,1.697302,1.713677,1.694052
2020-11-15 22:22:23.221,1.586298,1.694177,1.709677,1.692302
2020-11-15 22:22:23.238,1.588798,1.696802,1.700552,1.692802
2020-11-15 22:22:23.255,1.587673,1.699302,1.706552,1.691427
2020-11-15 22:22:23.272,1.586923,1.706802,1.707802,1.691802
2020-11-15 22:22:23.289,1.586548,1.704052,1.717427,1.692177
2020-11-15 22:22:23.306,1.584173,1.701177,1.714052,1.693552
2020-11-15 22:22:23.323,1.585423,1.692177,1.712802,1.693552
2020-11-15 22:22:23.340,1.586548,1.696927,1.707427,1.693802
2020-11-15 22:22:23.357,1.588798,1.697302,1.701177,1.692552
2020-11-15 22:22:23.374,1.587548,1.705802,1.706802,1.691677
2020-11-15 22:22:23.391,1.587298,1.705052,1.711677,1.691927
2020-11-15 22:22:23.408,1.585673,1.703802,1.718177,1.692177
2020-11-15 22:22:23.425,1.586048,1.700052,1.713177,1.694052
2020-11-15 22:22:23.442,1.585423,1.690927,1.711302,1.693052
2020-11-15 22:22:23.459,1.587423,1.696802,1.701677,1.692677
2020-11-15 22:22:23.476,1.588798,1.698177,1.705677,1.692052
2020-11-15 22:22:23.493,1.587298,1.710302,1.706552,1.691052
2020-11-15 22:22:23.510,1.585923,1.704427,1.713302,1.691927
2020-11-15 22:22:23.527,1.585173,1.703177,1.715427,1.692802
2020-11-15 22:22:23.544,1.585048,1.693677,1.712927,1.694052
2020-11-15 22:22:23.561,1.585548,1.696427,1.709677,1.693427
2020-11-15 22:22:23.578,1.587798,1.696427,1.701177,1.693177
2020-11-15 22:22:23.596,1.589424,1.699427,1.706177,1.692802
2020-11-15 22:22:23.613,1.587673,1.708552,1.706927,1.691302
2020-11-15 22:22:23.630,1.586423,1.704677,1.715802,1.692052
2020-11-15 22:22:23.647,1.585423,1.703802,1.713927,1.692052
2020-11-15 22:22:23.664,1.585548,1.696802,1.713052,1.693427
2020-11-15 22:22:23.681,1.585673,1.693177,1.709927,1.693177
2020-11-15 22:22:23.698,1.589549,1.697427,1.699927,1.693552
2020-11-15 22:22:23.715,1.587798,1.703677,1.706177,1.691927
2020-11-15 22:22:23.732,1.586923,1.706927,1.707802,1.692052
2020-11-15 22:22:23.749,1.585798,1.703677,1.717052,1.692552
2020-11-15 22:22:23.766,1.584923,1.701677,1.713427,1.693552
2020-11-15 22:22:23.783,1.585798,1.691927,1.712052,1.693927
2020-11-15 22:22:23.800,1.586423,1.696677,1.703302,1.693927
2020-11-15 22:22:23.817,1.588798,1.697052,1.705802,1.692927
2020-11-15 22:22:23.834,1.587298,1.705552,1.706427,1.691302
2020-11-15 22:22:23.851,1.586423,1.705052,1.711927,1.691177
2020-11-15 22:22:23.868,1.585173,1.703427,1.718552,1.691552
2020-11-15 22:22:23.885,1.585798,1.699677,1.713177,1.694427
2020-11-15 22:22:23.902,1.586173,1.696302,1.710802,1.693802
2020-11-15 22:22:23.919,1.587673,1.697677,1.701427,1.693427
2020-11-15 22:22:23.936,1.588923,1.701052,1.705427,1.692177
2020-11-15 22:22:23.953,1.587048,1.710552,1.706177,1.691927
2020-11-15 22:22:23.970,1.586423,1.704552,1.713177,1.692427
2020-11-15 22:22:23.987,1.585048,1.702802,1.714302,1.692927
2020-11-15 22:22:24.003,1.585423,1.694302,1.713552,1.694427
2020-11-15 22:22:24.020,1.586548,1.696302,1.706052,1.692302
2020-11-15 22:22:24.037,1.590799,1.697177,1.703802,1.692677
2020-11-15 22:22:24.054,1.588048,1.701802,1.706927,1.691177
2020-11-15 22:22:24.071,1.588048,1.708552,1.710052,1.691927
2020-11-15 22:22:24.088,1.585798,1.704427,1.719177,1.691927
2020-11-15 22:22:24.105,1.585173,1.699302,1.713802,1.694052
2020-11-15 22:22:24.123,1.586548,1.692427,1.713052,1.693427
2020-11-15 22:22:24.140,1.586423,1.695802,1.703802,1.692802
2020-11-15 22:22:24.157,1.590174,1.699427,1.705552,1.692302
2020-11-15 22:22:24.174,1.587548,1.708802,1.706927,1.691677
2020-11-15 22:22:24.191,1.587298,1.704677,1.710052,1.692302
2020-11-15 22:22:24.208,1.585548,1.703802,1.719177,1.692302
2020-11-15 22:22:24.225,1.585423,1.698052,1.712802,1.694177
2020-11-15 22:22:24.242,1.584673,1.693427,1.711177,1.693552
2020-11-15 22:22:24.259,1.590049,1.697177,1.700427,1.693177
2020-11-15 22:22:24.276,1.588173,1.699927,1.706802,1.691802
2020-11-15 22:22:24.293,1.588923,1.709302,1.707552,1.691552
2020-11-15 22:22:24.310,1.587673,1.704302,1.717552,1.691552
2020-11-15 22:22:24.327,1.586423,1.703302,1.713302,1.692427
2020-11-15 22:22:24.344,1.585923,1.695302,1.713052,1.693427
2020-11-15 22:22:24.361,1.586673,1.696927,1.708552,1.693552
2020-11-15 22:22:24.378,1.589674,1.697802,1.701552,1.692927
2020-11-15 22:22:24.395,1.586798,1.705677,1.706552,1.690802
2020-11-15 22:22:24.413,1.588048,1.710427,1.706302,1.692052
2020-11-15 22:22:24.430,1.586673,1.704052,1.713052,1.692427
2020-11-15 22:22:24.447,1.585298,1.702427,1.715052,1.693302
2020-11-15 22:22:24.464,1.586173,1.694177,1.713052,1.694427
2020-11-15 22:22:24.481,1.586423,1.696177,1.705927,1.693052
2020-11-15 22:22:24.498,1.589799,1.697052,1.703677,1.693302
2020-11-15 22:22:24.515,1.588548,1.701927,1.706177,1.690052
2020-11-15 22:22:24.532,1.586923,1.709052,1.710302,1.692177
2020-11-15 22:22:24.549,1.585548,1.703302,1.719302,1.692177
2020-11-15 22:22:24.566,1.586173,1.699302,1.713802,1.694427
2020-11-15 22:22:24.583,1.585923,1.691552,1.712802,1.693427
2020-11-15 22:22:24.600,1.587423,1.697302,1.703302,1.693427
2020-11-15 22:22:24.617,1.590049,1.698677,1.704802,1.692927
2020-11-15 22:22:24.634,1.587673,1.709052,1.705802,1.691677
2020-11-15 22:22:24.651,1.586048,1.704677,1.715677,1.691927
2020-11-15 22:22:24.668,1.585423,1.703927,1.713802,1.693052
2020-11-15 22:22:24.685,1.585923,1.697302,1.713302,1.694302
2020-11-15 22:22:24.702,1.586423,1.693302,1.708927,1.693677
2020-11-15 22:22:24.719,1.589424,1.697177,1.700677,1.692802
2020-11-15 22:22:24.735,1.588048,1.699927,1.706927,1.691927
2020-11-15 22:22:24.752,1.587548,1.708427,1.707802,1.692427
2020-11-15 22:22:24.769,1.586923,1.704177,1.717427,1.692177
2020-11-15 22:22:24.786,1.585673,1.701427,1.713677,1.693927
2020-11-15 22:22:24.803,1.585173,1.692677,1.712552,1.693177
2020-11-15 22:22:24.820,1.586298,1.696677,1.707927,1.693427
2020-11-15 22:22:24.837,1.589924,1.698177,1.705677,1.692302
2020-11-15 22:22:24.854,1.587423,1.705552,1.707427,1.691927
2020-11-15 22:22:24.871,1.587048,1.705427,1.712177,1.691427
2020-11-15 22:22:24.888,1.585298,1.703802,1.719302,1.691927
2020-11-15 22:22:24.905,1.585173,1.700052,1.712677,1.693177
2020-11-15 22:22:24.922,1.585798,1.691177,1.711052,1.693677
2020-11-15 22:22:24.939,1.587673,1.697302,1.701177,1.692552
2020-11-15 22:22:24.956,1.589173,1.700802,1.705302,1.692052
2020-11-15 22:22:24.973,1.588173,1.709802,1.706427,1.691927
2020-11-15 22:22:24.990,1.587298,1.704302,1.713552,1.692177
2020-11-15 22:22:25.007,1.584923,1.702927,1.716052,1.692802
2020-11-15 22:22:25.024,1.585298,1.694177,1.712802,1.694927
2020-11-15 22:22:25.041,1.586298,1.696177,1.707302,1.693552
2020-11-15 22:22:25.058,1.589424,1.697052,1.703427,1.692802
2020-11-15 22:22:25.075,1.588048,1.701427,1.706677,1.691052
2020-11-15 22:22:25.092,1.588423,1.709052,1.710177,1.691427
2020-11-15 22:22:25.109,1.586048,1.702927,1.719052,1.691927
2020-11-15 22:22:25.126,1.585548,1.700802,1.713427,1.694177
2020-11-15 22:22:25.143,1.586048,1.691427,1.712677,1.693552
2020-11-15 22:22:25.160,1.587298,1.697427,1.704177,1.693552
2020-11-15 22:22:25.177,1.590174,1.699177,1.704802,1.692177
2020-11-15 22:22:25.194,1.588298,1.707927,1.706677,1.691927
2020-11-15 22:22:25.211,1.587298,1.705302,1.709427,1.692427
2020-11-15 22:22:25.228,1.585173,1.702927,1.716427,1.692052
2020-11-15 22:22:25.246,1.584548,1.701427,1.713802,1.693927
2020-11-15 22:22:25.263,1.585423,1.692677,1.711677,1.693802
2020-11-15 22:22:25.280,1.587298,1.697052,1.703427,1.693052
2020-11-15 22:22:25.297,1.589924,1.697177,1.706302,1.692802
2020-11-15 22:22:25.314,1.587423,1.705552,1.707052,1.691177
2020-11-15 22:22:25.331,1.585798,1.704802,1.711552,1.692427
2020-11-15 22:22:25.348,1.585798,1.703177,1.718427,1.692427
2020-11-15 22:22:25.365,1.585923,1.696052,1.712802,1.694677
2020-11-15 22:22:25.382,1.586173,1.696052,1.710927,1.693677
2020-11-15 22:22:25.399,1.587423,1.697802,1.701677,1.693302
2020-11-15 22:22:25.416,1.588798,1.700427,1.706052,1.691677
2020-11-15 22:22:25.433,1.588048,1.709677,1.706177,1.691802
2020-11-15 22:22:25.450,1.586673,1.704552,1.713677,1.692302
2020-11-15 22:22:25.467,1.585423,1.703677,1.713802,1.692927
2020-11-15 22:22:25.484,1.586548,1.693677,1.713427,1.694552
2020-11-15 22:22:25.501,1.586423,1.696427,1.707177,1.693552
2020-11-15 22:22:25.518,1.590299,1.698052,1.703177,1.692552
2020-11-15 22:22:25.535,1.588673,1.701052,1.707177,1.691177
2020-11-15 22:22:25.552,1.587423,1.709177,1.710052,1.691927
2020-11-15 22:22:25.569,1.586173,1.703427,1.719302,1.692052
2020-11-15 22:22:25.586,1.585798,1.699302,1.713927,1.694427
2020-11-15 22:22:25.603,1.585798,1.691552,1.712302,1.693302
2020-11-15 22:22:25.620,1.586673,1.696802,1.704552,1.693552
2020-11-15 22:22:25.637,1.590299,1.699552,1.705552,1.692802
2020-11-15 22:22:25.654,1.587423,1.708302,1.706927,1.691302
2020-11-15 22:22:25.671,1.587173,1.705177,1.715177,1.692052
2020-11-15 22:22:25.688,1.585298,1.704302,1.714677,1.692177
2020-11-15 22:22:25.705,1.585298,1.697677,1.713677,1.693552
2020-11-15 22:22:25.722,1.586423,1.693052,1.709302,1.693052
2020-11-15 22:22:25.739,1.589799,1.696927,1.700802,1.693052
2020-11-15 22:22:25.756,1.588548,1.703677,1.706427,1.691802
2020-11-15 22:22:25.773,1.587798,1.707552,1.708052,1.691927
2020-11-15 22:22:25.790,1.586923,1.703927,1.717052,1.692052
2020-11-15 22:22:25.807,1.585048,1.700677,1.713677,1.693802
2020-11-15 22:22:25.824,1.586673,1.692302,1.711802,1.693677
2020-11-15 22:22:25.841,1.585923,1.697052,1.703427,1.693677
2020-11-15 22:22:25.858,1.590674,1.697677,1.705427,1.692177
2020-11-15 22:22:25.875,1.588298,1.705177,1.707052,1.690927
2020-11-15 22:22:25.892,1.587423,1.705052,1.711552,1.691927
2020-11-15 22:22:25.909,1.585423,1.703927,1.719427,1.691802
2020-11-15 22:22:25.926,1.586173,1.700302,1.713427,1.693177
2020-11-15 22:22:25.943,1.586048,1.690552,1.711302,1.693427
2020-11-15 22:22:25.960,1.588423,1.697302,1.702302,1.693552
2020-11-15 22:22:25.977,1.589674,1.700552,1.705677,1.691802
2020-11-15 22:22:25.994,1.587798,1.710302,1.706052,1.692302
2020-11-15 22:22:26.011,1.587048,1.704177,1.713177,1.691927
2020-11-15 22:22:26.028,1.584548,1.703177,1.716177,1.692802
2020-11-15 22:22:26.045,1.585048,1.693927,1.712927,1.693302
2020-11-15 22:22:26.063,1.585798,1.691927,1.711927,1.693052
2020-11-15 22:22:26.080,1.586173,1.697052,1.703802,1.693177
2020-11-15 22:22:26.097,1.590424,1.698927,1.705052,1.692302
2020-11-15 22:22:26.114,1.587923,1.708552,1.706552,1.691552
2020-11-15 22:22:26.131,1.586923,1.704677,1.715677,1.691552
2020-11-15 22:22:26.148,1.585923,1.704052,1.713677,1.691927
2020-11-15 22:22:26.165,1.585673,1.696927,1.712927,1.693677
2020-11-15 22:22:26.182,1.586423,1.693677,1.709427,1.692927
2020-11-15 22:22:26.199,1.588548,1.696677,1.701177,1.692552
2020-11-15 22:22:26.216,1.587423,1.703802,1.706302,1.691927
2020-11-15 22:22:26.233,1.587673,1.707177,1.707677,1.693052
2020-11-15 22:22:26.250,1.586673,1.703552,1.717177,1.692052
2020-11-15 22:22:26.267,1.585548,1.701427,1.714427,1.693677
2020-11-15 22:22:26.284,1.585173,1.691927,1.711927,1.693927
2020-11-15 22:22:26.301,1.586173,1.697052,1.708177,1.693677
2020-11-15 22:22:26.318,1.590549,1.697552,1.705552,1.692427
2020-11-15 22:22:26.335,1.587548,1.705427,1.707177,1.691302
2020-11-15 22:22:26.352,1.587048,1.705052,1.712052,1.692052
2020-11-15 22:22:26.369,1.585673,1.704177,1.718677,1.691927
2020-11-15 22:22:26.386,1.585423,1.699802,1.713302,1.693052
2020-11-15 22:22:26.403,1.585923,1.690677,1.711052,1.693427
2020-11-15 22:22:26.420,1.587423,1.697052,1.702052,1.692927
2020-11-15 22:22:26.437,1.589674,1.698302,1.705677,1.692177
2020-11-15 22:22:26.454,1.587798,1.706927,1.706802,1.691177
2020-11-15 22:22:26.471,1.587173,1.703802,1.713427,1.691677
2020-11-15 22:22:26.488,1.585423,1.703552,1.715927,1.692802
2020-11-15 22:22:26.505,1.584923,1.694427,1.713302,1.694552
2020-11-15 22:22:26.522,1.585298,1.696552,1.710302,1.692677
2020-11-15 22:22:26.539,1.588173,1.698052,1.700927,1.693552
2020-11-15 22:22:26.556,1.588673,1.702052,1.705677,1.691802
2020-11-15 22:22:26.573,1.586923,1.709427,1.706302,1.692927
2020-11-15 22:22:26.590,1.587298,1.703677,1.718927,1.692427
2020-11-15 22:22:26.607,1.585798,1.702052,1.713677,1.693302
2020-11-15 22:22:26.624,1.586048,1.693177,1.713302,1.693802
2020-11-15 22:22:26.641,1.586798,1.696552,1.704302,1.693552
2020-11-15 22:22:26.658,1.589799,1.697302,1.705802,1.692552
2020-11-15 22:22:26.675,1.587798,1.703427,1.706177,1.690802
2020-11-15 22:22:26.692,1.587548,1.707052,1.710677,1.692052
2020-11-15 22:22:26.709,1.585298,1.704052,1.719927,1.692802
2020-11-15 22:22:26.726,1.585423,1.698177,1.713177,1.694677
2020-11-15 22:22:26.743,1.586048,1.693677,1.711677,1.694052
2020-11-15 22:22:26.760,1.586548,1.697802,1.702177,1.693552
2020-11-15 22:22:26.777,1.590424,1.699802,1.705302,1.692052
2020-11-15 22:22:26.794,1.587923,1.709552,1.707802,1.691677
2020-11-15 22:22:26.811,1.586923,1.705177,1.717052,1.692052
2020-11-15 22:22:26.828,1.585298,1.703302,1.714177,1.692302
2020-11-15 22:22:26.845,1.585173,1.695677,1.713302,1.693927
2020-11-15 22:22:26.862,1.585548,1.695802,1.708302,1.692552
2020-11-15 22:22:26.879,1.590049,1.697177,1.702302,1.693052
2020-11-15 22:22:26.897,1.589799,1.697927,1.705927,1.692302
2020-11-15 22:22:26.914,1.587673,1.710302,1.706427,1.691927
2020-11-15 22:22:26.931,1.586673,1.704677,1.713677,1.692677
2020-11-15 22:22:26.948,1.584673,1.703427,1.716052,1.693052
2020-11-15 22:22:26.965,1.586173,1.694177,1.712677,1.694552
2020-11-15 22:22:26.982,1.585423,1.696677,1.706677,1.694177
2020-11-15 22:22:26.999,1.590424,1.697677,1.703552,1.693302
2020-11-15 22:22:27.016,1.588298,1.701677,1.706802,1.691552
2020-11-15 22:22:27.033,1.587173,1.709302,1.709427,1.692052
2020-11-15 22:22:27.050,1.586173,1.703802,1.719427,1.691302
2020-11-15 22:22:27.067,1.585548,1.701552,1.714177,1.694052
2020-11-15 22:22:27.084,1.585798,1.691677,1.713552,1.693677
2020-11-15 22:22:27.101,1.586923,1.697552,1.704677,1.693552
2020-11-15 22:22:27.118,1.590674,1.698927,1.705302,1.692177
2020-11-15 22:22:27.135,1.587798,1.708177,1.705802,1.690802
2020-11-15 22:22:27.152,1.586548,1.704802,1.709927,1.692177
2020-11-15 22:22:27.169,1.585798,1.704177,1.714302,1.692802
2020-11-15 22:22:27.186,1.585923,1.697552,1.713677,1.694177
2020-11-15 22:22:27.203,1.586048,1.694052,1.709302,1.692927
2020-11-15 22:22:27.220,1.589549,1.696302,1.700427,1.693302
2020-11-15 22:22:27.237,1.588673,1.700177,1.706302,1.691052
2020-11-15 22:22:27.254,1.587673,1.708927,1.707927,1.690927
2020-11-15 22:22:27.271,1.586048,1.704177,1.717802,1.692427
2020-11-15 22:22:27.288,1.585798,1.701302,1.714427,1.693552
2020-11-15 22:22:27.305,1.585548,1.692177,1.712927,1.694177
2020-11-15 22:22:27.322,1.586173,1.697177,1.708677,1.693677
2020-11-15 22:22:27.339,1.589424,1.698052,1.701052,1.693052
2020-11-15 22:22:27.356,1.587298,1.705552,1.707177,1.691927
2020-11-15 22:22:27.373,1.586673,1.705177,1.708052,1.692177
2020-11-15 22:22:27.390,1.585423,1.704552,1.717552,1.692302
2020-11-15 22:22:27.407,1.584798,1.700427,1.712927,1.693927
2020-11-15 22:22:27.424,1.586048,1.691927,1.711677,1.693427
2020-11-15 22:22:27.441,1.587423,1.697052,1.701802,1.693302
2020-11-15 22:22:27.458,1.589674,1.695677,1.705677,1.692427
2020-11-15 22:22:27.475,1.588048,1.707177,1.707302,1.691052
2020-11-15 22:22:27.492,1.586673,1.704302,1.713302,1.691052
2020-11-15 22:22:27.509,1.585673,1.703677,1.716677,1.692427
2020-11-15 22:22:27.526,1.586048,1.694552,1.712802,1.695052
2020-11-15 22:22:27.543,1.585423,1.696302,1.709927,1.693052
2020-11-15 22:22:27.560,1.588048,1.697677,1.700927,1.693552
2020-11-15 22:22:27.577,1.588423,1.702177,1.705552,1.691802
2020-11-15 22:22:27.594,1.587673,1.710052,1.705927,1.691302
2020-11-15 22:22:27.611,1.587423,1.703802,1.714677,1.691927
2020-11-15 22:22:27.628,1.584673,1.702802,1.714177,1.693302
2020-11-15 22:22:27.645,1.586548,1.693052,1.713302,1.694552
2020-11-15 22:22:27.662,1.586423,1.696052,1.705052,1.693052
2020-11-15 22:22:27.679,1.590424,1.696802,1.705927,1.692927
2020-11-15 22:22:27.696,1.588298,1.703552,1.706552,1.691052
2020-11-15 22:22:27.714,1.587798,1.709052,1.707927,1.691052
2020-11-15 22:22:27.731,1.585923,1.703552,1.716802,1.692302
2020-11-15 22:22:27.748,1.584923,1.701927,1.714177,1.693802
2020-11-15 22:22:27.765,1.584923,1.692927,1.713052,1.694302
2020-11-15 22:22:27.782,1.585798,1.696677,1.707677,1.693802
2020-11-15 22:22:27.799,1.588673,1.697427,1.701427,1.693052
2020-11-15 22:22:27.816,1.588048,1.705927,1.706427,1.690927
2020-11-15 22:22:27.833,1.586923,1.704927,1.708052,1.692177
2020-11-15 22:22:27.850,1.586423,1.704677,1.718927,1.692302
2020-11-15 22:22:27.867,1.585923,1.700052,1.713302,1.694552
2020-11-15 22:22:27.884,1.585798,1.690927,1.711302,1.692927
2020-11-15 22:22:27.901,1.587048,1.697177,1.702052,1.693302
2020-11-15 22:22:27.918,1.588423,1.697552,1.706302,1.692427
2020-11-15 22:22:27.935,1.587673,1.706927,1.706802,1.692427
2020-11-15 22:22:27.952,1.585923,1.704677,1.713302,1.692427
2020-11-15 22:22:27.969,1.585048,1.703052,1.716427,1.693177
2020-11-15 22:22:27.986,1.585298,1.694427,1.712927,1.695177
2020-11-15 22:22:28.003,1.585298,1.696552,1.710177,1.693677
2020-11-15 22:22:28.020,1.587298,1.697677,1.700177,1.692802
2020-11-15 22:22:28.037,1.587048,1.702427,1.707177,1.691552
2020-11-15 22:22:28.054,1.587173,1.709552,1.709552,1.692302
2020-11-15 22:22:28.071,1.586173,1.704552,1.719802,1.692052
2020-11-15 22:22:28.088,1.586173,1.701677,1.713802,1.692302
2020-11-15 22:22:28.105,1.586048,1.692802,1.713552,1.693552
2020-11-15 22:22:28.122,1.587048,1.696302,1.704677,1.693677
2020-11-15 22:22:28.139,1.590174,1.699302,1.705552,1.693302
2020-11-15 22:22:28.156,1.587423,1.708177,1.706802,1.691802
2020-11-15 22:22:28.173,1.587298,1.705427,1.710177,1.692677
2020-11-15 22:22:28.190,1.585548,1.703552,1.719427,1.693177
2020-11-15 22:22:28.207,1.585923,1.697302,1.712927,1.694302
2020-11-15 22:22:28.224,1.584798,1.693427,1.709302,1.694302
2020-11-15 22:22:28.241,1.588798,1.697802,1.700927,1.693427
2020-11-15 22:22:28.258,1.587548,1.700302,1.706802,1.691802
2020-11-15 22:22:28.275,1.587048,1.709677,1.708552,1.691802
2020-11-15 22:22:28.292,1.586548,1.704552,1.717302,1.691677
2020-11-15 22:22:28.309,1.584923,1.703802,1.714177,1.692552
2020-11-15 22:22:28.326,1.585173,1.695927,1.713302,1.693802
2020-11-15 22:22:28.343,1.585548,1.696802,1.708552,1.693927
2020-11-15 22:22:28.359,1.588923,1.698302,1.700927,1.693302
2020-11-15 22:22:28.376,1.587673,1.705927,1.706802,1.691052
2020-11-15 22:22:28.393,1.587548,1.705552,1.708052,1.692552
2020-11-15 22:22:28.410,1.585298,1.704052,1.718177,1.692677
2020-11-15 22:22:28.427,1.584173,1.700677,1.713552,1.694177
2020-11-15 22:22:28.444,1.586048,1.691802,1.711177,1.693802
2020-11-15 22:22:28.461,1.586798,1.697552,1.702177,1.693552
2020-11-15 22:22:28.478,1.589674,1.697677,1.705927,1.692427
2020-11-15 22:22:28.495,1.587923,1.706552,1.707427,1.690427
2020-11-15 22:22:28.512,1.586923,1.704802,1.713677,1.691802
2020-11-15 22:22:28.529,1.585298,1.703552,1.719177,1.692177
2020-11-15 22:22:28.548,1.585298,1.699927,1.714177,1.694052
2020-11-15 22:22:28.565,1.585673,1.691802,1.713177,1.693552
2020-11-15 22:22:28.582,1.585548,1.697427,1.704177,1.693552
2020-11-15 22:22:28.599,1.590049,1.699427,1.705802,1.692802
2020-11-15 22:22:28.616,1.587173,1.708302,1.706052,1.691427
2020-11-15 22:22:28.633,1.587423,1.705677,1.710552,1.692552
2020-11-15 22:22:28.650,1.584673,1.704552,1.714177,1.692927
2020-11-15 22:22:28.667,1.585423,1.698302,1.713052,1.694052
2020-11-15 22:22:28.684,1.585423,1.693427,1.710177,1.693302
2020-11-15 22:22:28.700,1.588673,1.696802,1.700427,1.692802
2020-11-15 22:22:28.718,1.589299,1.700427,1.705052,1.692302
2020-11-15 22:22:28.735,1.588173,1.709302,1.707677,1.691677
2020-11-15 22:22:28.752,1.585798,1.704677,1.717677,1.691677
2020-11-15 22:22:28.769,1.584298,1.703427,1.714677,1.692802
2020-11-15 22:22:28.786,1.585423,1.696052,1.713427,1.693927
2020-11-15 22:22:28.803,1.585923,1.695552,1.708927,1.693302
2020-11-15 22:22:28.820,1.590299,1.697177,1.701677,1.693552
2020-11-15 22:22:28.837,1.587923,1.705177,1.707302,1.692427
2020-11-15 22:22:28.854,1.586798,1.705302,1.708552,1.692302
2020-11-15 22:22:28.871,1.585798,1.704177,1.718052,1.692177
2020-11-15 22:22:28.888,1.585673,1.701052,1.714302,1.693927
2020-11-15 22:22:28.905,1.585923,1.691177,1.712427,1.694177
2020-11-15 22:22:28.922,1.586423,1.697302,1.706052,1.693552
2020-11-15 22:22:28.939,1.589173,1.698552,1.705802,1.692552
2020-11-15 22:22:28.956,1.587673,1.707427,1.706802,1.691677
2020-11-15 22:22:28.973,1.587298,1.704552,1.713802,1.691927
2020-11-15 22:22:28.990,1.585298,1.703427,1.717052,1.692177
2020-11-15 22:22:29.007,1.585548,1.698802,1.713552,1.694177
2020-11-15 22:22:29.024,1.586298,1.691302,1.709552,1.693302
2020-11-15 22:22:29.041,1.588798,1.697677,1.700927,1.693802
2020-11-15 22:22:29.058,1.588548,1.702052,1.706052,1.691677
2020-11-15 22:22:29.075,1.587798,1.710177,1.707052,1.692177
2020-11-15 22:22:29.092,1.586423,1.704177,1.714927,1.692552
2020-11-15 22:22:29.109,1.585298,1.702677,1.713677,1.693177
2020-11-15 22:22:29.126,1.585298,1.693552,1.712302,1.695177
2020-11-15 22:22:29.143,1.586173,1.696927,1.705052,1.693677
2020-11-15 22:22:29.160,1.590299,1.697927,1.706052,1.693052
2020-11-15 22:22:29.177,1.587798,1.703802,1.707302,1.692052
2020-11-15 22:22:29.194,1.587673,1.706927,1.710427,1.691677
2020-11-15 22:22:29.211,1.585173,1.703927,1.720302,1.691677
2020-11-15 22:22:29.228,1.585548,1.701177,1.713427,1.695052
2020-11-15 22:22:29.245,1.585423,1.694052,1.712302,1.693427
2020-11-15 22:22:29.262,1.586673,1.697677,1.703302,1.693677
2020-11-15 22:22:29.279,1.589424,1.700177,1.705927,1.692177
2020-11-15 22:22:29.295,1.587173,1.709302,1.706177,1.692177
2020-11-15 22:22:29.313,1.586673,1.705177,1.710427,1.693052
2020-11-15 22:22:29.330,1.585173,1.703427,1.714052,1.693177
2020-11-15 22:22:29.346,1.585798,1.696802,1.713677,1.692677
2020-11-15 22:22:29.365,1.586173,1.691427,1.711302,1.693677
2020-11-15 22:22:29.382,1.587548,1.697427,1.702302,1.693302
2020-11-15 22:22:29.399,1.589424,1.697927,1.706427,1.692427
2020-11-15 22:22:29.416,1.587298,1.707052,1.707552,1.691302
2020-11-15 22:22:29.433,1.586923,1.704427,1.713802,1.692552
2020-11-15 22:22:29.450,1.586048,1.703552,1.717552,1.693177
2020-11-15 22:22:29.467,1.586048,1.694552,1.714052,1.695177
2020-11-15 22:22:29.484,1.585548,1.696927,1.710802,1.694052
2020-11-15 22:22:29.501,1.588923,1.697802,1.701052,1.693177
2020-11-15 22:22:29.518,1.588673,1.701927,1.705927,1.691677
2020-11-15 22:22:29.535,1.587298,1.710927,1.706677,1.692177
2020-11-15 22:22:29.552,1.586923,1.703802,1.719802,1.692302
2020-11-15 22:22:29.569,1.586298,1.702552,1.714052,1.693427
2020-11-15 22:22:29.586,1.585298,1.693927,1.713302,1.694052
2020-11-15 22:22:29.603,1.587298,1.696677,1.705302,1.693177
2020-11-15 22:22:29.620,1.589799,1.697302,1.705552,1.692802
2020-11-15 22:22:29.637,1.587923,1.703177,1.707177,1.692302
2020-11-15 22:22:29.654,1.587048,1.705802,1.710927,1.692552
2020-11-15 22:22:29.671,1.586048,1.704552,1.720302,1.693802
2020-11-15 22:22:29.688,1.585423,1.698927,1.713552,1.694677
2020-11-15 22:22:29.705,1.586173,1.693927,1.712177,1.693927
2020-11-15 22:22:29.721,1.586548,1.697302,1.702802,1.693927
2020-11-15 22:22:29.739,1.589924,1.700302,1.705927,1.692302
2020-11-15 22:22:29.755,1.588048,1.709052,1.707927,1.691677
2020-11-15 22:22:29.772,1.588048,1.704802,1.717177,1.691927
2020-11-15 22:22:29.789,1.585548,1.703927,1.714677,1.692677
2020-11-15 22:22:29.806,1.585923,1.697177,1.713802,1.693927
2020-11-15 22:22:29.823,1.585423,1.695302,1.709177,1.693302
2020-11-15 22:22:29.840,1.590299,1.697302,1.701052,1.693427
2020-11-15 22:22:29.857,1.588923,1.705427,1.706802,1.691927
2020-11-15 22:22:29.874,1.587798,1.706427,1.708927,1.692177
2020-11-15 22:22:29.891,1.586673,1.704052,1.718302,1.692927
2020-11-15 22:22:29.908,1.585173,1.701552,1.714677,1.693927
2020-11-15 22:22:29.925,1.585798,1.692302,1.713052,1.693927
2020-11-15 22:22:29.942,1.585923,1.696802,1.703052,1.693427
2020-11-15 22:22:29.959,1.590049,1.698052,1.706177,1.693177
2020-11-15 22:22:29.976,1.588423,1.706802,1.707177,1.691677
2020-11-15 22:22:29.993,1.587298,1.705052,1.713427,1.691427
2020-11-15 22:22:30.010,1.585673,1.703927,1.717677,1.692302
2020-11-15 22:22:30.027,1.586048,1.700302,1.713427,1.693927
2020-11-15 22:22:30.044,1.585298,1.697052,1.711427,1.693552
2020-11-15 22:22:30.061,1.587673,1.697802,1.701677,1.692927
2020-11-15 22:22:30.078,1.588173,1.701552,1.705552,1.691552
2020-11-15 22:22:30.095,1.588423,1.710552,1.706927,1.692802
2020-11-15 22:22:30.112,1.587048,1.704302,1.714927,1.692177
2020-11-15 22:22:30.129,1.585548,1.702802,1.714302,1.693927
2020-11-15 22:22:30.146,1.586298,1.694052,1.713802,1.694677
2020-11-15 22:22:30.163,1.587423,1.696927,1.705552,1.693927
2020-11-15 22:22:30.180,1.590674,1.696177,1.700927,1.693927
2020-11-15 22:22:30.198,1.588923,1.700052,1.706802,1.691802
2020-11-15 22:22:30.215,1.588298,1.708427,1.708177,1.691677
2020-11-15 22:22:30.232,1.587173,1.704427,1.717052,1.692302
2020-11-15 22:22:30.249,1.585673,1.702677,1.714677,1.694427
2020-11-15 22:22:30.266,1.586173,1.693302,1.713052,1.694427
2020-11-15 22:22:30.283,1.585048,1.697052,1.708927,1.693802
2020-11-15 22:22:30.300,1.589424,1.698427,1.700552,1.693427
2020-11-15 22:22:30.317,1.587673,1.705177,1.706927,1.692302
2020-11-15 22:22:30.334,1.588173,1.706427,1.708427,1.692802
2020-11-15 22:22:30.351,1.586923,1.704427,1.717427,1.692802
2020-11-15 22:22:30.368,1.585673,1.701177,1.713802,1.693677
2020-11-15 22:22:30.385,1.586673,1.691677,1.711802,1.693677
2020-11-15 22:22:30.402,1.587173,1.697177,1.702802,1.693927
2020-11-15 22:22:30.419,1.590049,1.698052,1.705802,1.692677
2020-11-15 22:22:30.436,1.587923,1.706927,1.707427,1.691552
2020-11-15 22:22:30.453,1.587298,1.704052,1.712802,1.692177
2020-11-15 22:22:30.470,1.585923,1.703677,1.717552,1.693177
2020-11-15 22:22:30.487,1.585673,1.694927,1.713427,1.695177
2020-11-15 22:22:30.504,1.585798,1.696802,1.710552,1.694177
2020-11-15 22:22:30.521,1.588298,1.697802,1.701552,1.693802
2020-11-15 22:22:30.538,1.588173,1.701927,1.706302,1.693052
2020-11-15 22:22:30.555,1.587298,1.710552,1.706302,1.692427
2020-11-15 22:22:30.572,1.586548,1.704177,1.718802,1.692302
2020-11-15 22:22:30.589,1.585923,1.702927,1.714552,1.693302
2020-11-15 22:22:30.606,1.585548,1.694177,1.713302,1.694177
2020-11-15 22:22:30.623,1.585923,1.696552,1.705677,1.693427
2020-11-15 22:22:30.640,1.589549,1.696802,1.704802,1.692927
2020-11-15 22:22:30.657,1.588423,1.702177,1.707427,1.692302
2020-11-15 22:22:30.674,1.587548,1.704177,1.711177,1.693427
2020-11-15 22:22:30.691,1.586423,1.703802,1.720302,1.692927
2020-11-15 22:22:30.708,1.585673,1.698802,1.713552,1.694427
2020-11-15 22:22:30.725,1.585423,1.693052,1.712302,1.694177
2020-11-15 22:22:30.742,1.585673,1.698177,1.700427,1.693302
2020-11-15 22:22:30.759,1.589424,1.700302,1.706677,1.692677
2020-11-15 22:22:30.776,1.587298,1.708427,1.707552,1.691802
2020-11-15 22:22:30.793,1.586298,1.705427,1.716677,1.692302
2020-11-15 22:22:30.810,1.585298,1.703802,1.714177,1.692177
2020-11-15 22:22:30.827,1.586298,1.696302,1.713552,1.694427
2020-11-15 22:22:30.844,1.586673,1.694552,1.709927,1.693302
2020-11-15 22:22:30.861,1.589173,1.698177,1.700677,1.693427
2020-11-15 22:22:30.878,1.587798,1.704927,1.706427,1.692052
2020-11-15 22:22:30.895,1.587923,1.707552,1.709052,1.692552
2020-11-15 22:22:30.912,1.587298,1.704552,1.717427,1.692427
2020-11-15 22:22:30.929,1.584548,1.701302,1.713552,1.693927
2020-11-15 22:22:30.946,1.585548,1.692302,1.711927,1.694177
2020-11-15 22:22:30.963,1.586673,1.697052,1.702802,1.694177
2020-11-15 22:22:30.980,1.590924,1.697927,1.705427,1.692427
2020-11-15 22:22:30.997,1.587298,1.705927,1.707427,1.691302
2020-11-15 22:22:31.015,1.586923,1.710802,1.706802,1.692677
2020-11-15 22:22:31.032,1.586173,1.704052,1.718552,1.692052
2020-11-15 22:22:31.049,1.584673,1.703302,1.714802,1.693677
2020-11-15 22:22:31.066,1.586548,1.694677,1.713802,1.694552
2020-11-15 22:22:31.083,1.586173,1.697052,1.706302,1.693052
2020-11-15 22:22:31.100,1.589173,1.698177,1.704802,1.692677
2020-11-15 22:22:31.117,1.588048,1.701927,1.706927,1.691302
2020-11-15 22:22:31.134,1.588298,1.708427,1.709802,1.692552
2020-11-15 22:22:31.151,1.586173,1.703802,1.720052,1.693302
2020-11-15 22:22:31.168,1.586673,1.699052,1.713552,1.694427
2020-11-15 22:22:31.185,1.585798,1.693052,1.712677,1.694052
2020-11-15 22:22:31.202,1.586423,1.698052,1.703677,1.693927
2020-11-15 22:22:31.219,1.590424,1.699802,1.705552,1.693302
2020-11-15 22:22:31.236,1.587923,1.709052,1.706802,1.692177
2020-11-15 22:22:31.253,1.587548,1.705052,1.716802,1.692802
2020-11-15 22:22:31.270,1.586298,1.704302,1.714427,1.692927
2020-11-15 22:22:31.287,1.584923,1.697677,1.714052,1.694802
2020-11-15 22:22:31.304,1.586923,1.694677,1.710302,1.693427
2020-11-15 22:22:31.321,1.589424,1.697677,1.700802,1.693052
2020-11-15 22:22:31.338,1.587923,1.700052,1.706927,1.692052
2020-11-15 22:22:31.355,1.588923,1.707552,1.709052,1.692677
2020-11-15 22:22:31.372,1.586173,1.704052,1.717427,1.692177
2020-11-15 22:22:31.389,1.585048,1.701552,1.714052,1.693927
2020-11-15 22:22:31.406,1.585798,1.692802,1.713177,1.694552
2020-11-15 22:22:31.423,1.586173,1.697552,1.707427,1.694052
2020-11-15 22:22:31.440,1.589173,1.698052,1.706052,1.693052
2020-11-15 22:22:31.457,1.587923,1.705802,1.707427,1.691552
2020-11-15 22:22:31.474,1.587173,1.705302,1.712677,1.692177
2020-11-15 22:22:31.491,1.586423,1.704052,1.718927,1.692052
2020-11-15 22:22:31.508,1.585923,1.700177,1.713427,1.694802
2020-11-15 22:22:31.525,1.585798,1.696927,1.711302,1.694177
2020-11-15 22:22:31.542,1.587548,1.697427,1.701677,1.693302
2020-11-15 22:22:31.559,1.588798,1.701302,1.706302,1.692552
2020-11-15 22:22:31.576,1.587673,1.710677,1.706802,1.692677
2020-11-15 22:22:31.593,1.586298,1.704927,1.713677,1.692802
2020-11-15 22:22:31.610,1.585048,1.703302,1.715927,1.693552
2020-11-15 22:22:31.627,1.586548,1.694552,1.713302,1.695177
2020-11-15 22:22:31.644,1.585298,1.696927,1.709927,1.694177
2020-11-15 22:22:31.661,1.588048,1.697802,1.703677,1.693302
2020-11-15 22:22:31.678,1.587923,1.701302,1.707177,1.692052
2020-11-15 22:22:31.695,1.586798,1.709052,1.710677,1.692677
2020-11-15 22:22:31.712,1.587298,1.703927,1.719177,1.692677
2020-11-15 22:22:31.729,1.586048,1.702177,1.714177,1.692802
2020-11-15 22:22:31.746,1.586673,1.692677,1.713552,1.694177
2020-11-15 22:22:31.763,1.588048,1.697927,1.704427,1.693552
2020-11-15 22:22:31.780,1.590674,1.699677,1.705802,1.693052
2020-11-15 22:22:31.797,1.588173,1.708927,1.706927,1.692302
2020-11-15 22:22:31.814,1.587423,1.705552,1.710427,1.692677
2020-11-15 22:22:31.831,1.585673,1.703302,1.717052,1.692677
2020-11-15 22:22:31.849,1.585423,1.702052,1.714677,1.693802
2020-11-15 22:22:31.866,1.586673,1.692802,1.712927,1.693927
2020-11-15 22:22:31.883,1.586548,1.697552,1.707552,1.693677
2020-11-15 22:22:31.900,1.590549,1.697677,1.706177,1.692802
2020-11-15 22:22:31.917,1.587798,1.705927,1.707052,1.691552
2020-11-15 22:22:31.934,1.587423,1.704427,1.712052,1.692177
2020-11-15 22:22:31.951,1.586173,1.703552,1.718677,1.692302
2020-11-15 22:22:31.968,1.586673,1.700052,1.713677,1.693802
2020-11-15 22:22:31.985,1.585048,1.696927,1.711302,1.694052
2020-11-15 22:22:32.002,1.587923,1.697552,1.702052,1.694052
2020-11-15 22:22:32.019,1.589549,1.701302,1.706177,1.692302
2020-11-15 22:22:32.036,1.587923,1.710927,1.707302,1.692177
2020-11-15 22:22:32.053,1.586548,1.704677,1.713677,1.693052
2020-11-15 22:22:32.070,1.585673,1.703427,1.716052,1.693552
2020-11-15 22:22:32.087,1.585423,1.694177,1.713177,1.695052
2020-11-15 22:22:32.104,1.587548,1.697052,1.707302,1.693802
2020-11-15 22:22:32.121,1.590799,1.697927,1.703802,1.693552
2020-11-15 22:22:32.138,1.588798,1.702427,1.707177,1.691802
2020-11-15 22:22:32.155,1.588298,1.709427,1.710052,1.691552
2020-11-15 22:22:32.172,1.586798,1.703677,1.719552,1.693177
2020-11-15 22:22:32.189,1.586548,1.700677,1.714177,1.694802
2020-11-15 22:22:32.206,1.586548,1.692052,1.713177,1.693927
2020-11-15 22:22:32.223,1.586798,1.697802,1.704802,1.694052
2020-11-15 22:22:32.240,1.590924,1.699552,1.706052,1.692802
2020-11-15 22:22:32.257,1.587423,1.709052,1.706427,1.692052
2020-11-15 22:22:32.274,1.588048,1.705427,1.716677,1.693302
2020-11-15 22:22:32.291,1.585673,1.704177,1.714927,1.692802
2020-11-15 22:22:32.308,1.587298,1.698177,1.714302,1.695177
2020-11-15 22:22:32.325,1.586673,1.693552,1.710052,1.693052
2020-11-15 22:22:32.342,1.589674,1.697552,1.700927,1.693177
2020-11-15 22:22:32.359,1.588423,1.699677,1.706677,1.692302
2020-11-15 22:22:32.376,1.588298,1.709177,1.708302,1.692552
2020-11-15 22:22:32.393,1.587298,1.704552,1.717677,1.693177
2020-11-15 22:22:32.410,1.585548,1.701802,1.714802,1.694052
2020-11-15 22:22:32.427,1.586548,1.693552,1.712927,1.694052
2020-11-15 22:22:32.444,1.587298,1.697302,1.707802,1.693302
2020-11-15 22:22:32.461,1.590174,1.697927,1.700427,1.693052
2020-11-15 22:22:32.478,1.588298,1.705802,1.707177,1.691927
2020-11-15 22:22:32.495,1.587798,1.705927,1.712177,1.692552
2020-11-15 22:22:32.512,1.586673,1.704427,1.719302,1.692802
2020-11-15 22:22:32.529,1.586798,1.700802,1.713802,1.694052
2020-11-15 22:22:32.546,1.587048,1.691177,1.711927,1.693552
2020-11-15 22:22:32.563,1.587673,1.697427,1.702802,1.693927
2020-11-15 22:22:32.580,1.590424,1.700927,1.706427,1.692302
2020-11-15 22:22:32.597,1.588923,1.710802,1.706302,1.692677
2020-11-15 22:22:32.614,1.587173,1.704927,1.712927,1.693052
2020-11-15 22:22:32.630,1.586423,1.703677,1.717052,1.693552
2020-11-15 22:22:32.648,1.586548,1.695177,1.713052,1.693802
2020-11-15 22:22:32.666,1.586298,1.691677,1.713427,1.693927
2020-11-15 22:22:32.683,1.586923,1.697927,1.704427,1.694052
2020-11-15 22:22:32.700,1.590924,1.699177,1.706427,1.692802
2020-11-15 22:22:32.717,1.588048,1.707927,1.706927,1.692677
2020-11-15 22:22:32.734,1.588173,1.705677,1.715427,1.692677
2020-11-15 22:22:32.751,1.586048,1.703927,1.714802,1.692677
2020-11-15 22:22:32.768,1.586673,1.698552,1.713927,1.694302
2020-11-15 22:22:32.785,1.586923,1.693677,1.710802,1.694052
2020-11-15 22:22:32.802,1.590174,1.698177,1.700552,1.693802
2020-11-15 22:22:32.819,1.589048,1.703302,1.706927,1.692177
2020-11-15 22:22:32.836,1.588798,1.709052,1.708052,1.692927
2020-11-15 22:22:32.853,1.586923,1.704802,1.717052,1.692927
2020-11-15 22:22:32.870,1.585673,1.701927,1.714052,1.693552
2020-11-15 22:22:32.887,1.585798,1.693427,1.712802,1.694802
2020-11-15 22:22:32.904,1.587423,1.696802,1.703677,1.693552
2020-11-15 22:22:32.921,1.591299,1.698427,1.706177,1.692677
2020-11-15 22:22:32.938,1.587798,1.704677,1.707177,1.691552
2020-11-15 22:22:32.955,1.588548,1.705552,1.711427,1.691552
2020-11-15 22:22:32.971,1.585798,1.703802,1.720302,1.693427
2020-11-15 22:22:32.989,1.586298,1.697302,1.713802,1.695302
2020-11-15 22:22:33.005,1.587048,1.695427,1.711552,1.694052
2020-11-15 22:22:33.022,1.587673,1.697677,1.702177,1.693927
2020-11-15 22:22:33.039,1.589799,1.701302,1.705802,1.692802
2020-11-15 22:22:33.056,1.587673,1.709677,1.706552,1.692552
2020-11-15 22:22:33.073,1.587423,1.704802,1.717927,1.693052
2020-11-15 22:22:33.090,1.586048,1.703802,1.715052,1.692927
2020-11-15 22:22:33.107,1.586298,1.694552,1.712927,1.694552
2020-11-15 22:22:33.124,1.586298,1.696927,1.707427,1.693677
2020-11-15 22:22:33.141,1.590049,1.697802,1.703302,1.693427
2020-11-15 22:22:33.158,1.589424,1.701052,1.706927,1.691552
2020-11-15 22:22:33.175,1.588048,1.705052,1.709427,1.692802
2020-11-15 22:22:33.192,1.586673,1.703802,1.718302,1.693177
2020-11-15 22:22:33.209,1.586048,1.700802,1.714552,1.695302
2020-11-15 22:22:33.226,1.586173,1.692052,1.713427,1.693927
2020-11-15 22:22:33.243,1.586548,1.697177,1.705177,1.693677
2020-11-15 22:22:33.260,1.590549,1.699302,1.706802,1.693177
2020-11-15 22:22:33.277,1.588048,1.708052,1.708052,1.692427
2020-11-15 22:22:33.294,1.586798,1.705802,1.714802,1.692552
2020-11-15 22:22:33.312,1.586298,1.704677,1.719927,1.692802
2020-11-15 22:22:33.329,1.586173,1.699552,1.713177,1.694802
2020-11-15 22:22:33.346,1.586423,1.693677,1.710427,1.693927
2020-11-15 22:22:33.363,1.588798,1.697927,1.701052,1.693677
2020-11-15 22:22:33.380,1.588673,1.699802,1.706427,1.692677
2020-11-15 22:22:33.397,1.589424,1.708802,1.708052,1.691677
2020-11-15 22:22:33.414,1.587298,1.704677,1.716802,1.692802
2020-11-15 22:22:33.431,1.586048,1.703302,1.714927,1.692677
2020-11-15 22:22:33.448,1.586048,1.697052,1.713927,1.694677
2020-11-15 22:22:33.465,1.586673,1.697677,1.709427,1.694052
2020-11-15 22:22:33.482,1.590674,1.696927,1.702802,1.693552
2020-11-15 22:22:33.500,1.590674,1.700677,1.706052,1.692802
2020-11-15 22:22:33.517,1.588173,1.710302,1.707302,1.692177
2020-11-15 22:22:33.534,1.587798,1.705302,1.712177,1.693427
2020-11-15 22:22:33.551,1.585423,1.704177,1.714802,1.693177
2020-11-15 22:22:33.568,1.586298,1.695802,1.713177,1.694927
2020-11-15 22:22:33.585,1.587173,1.696802,1.707552,1.693677
2020-11-15 22:22:33.602,1.590799,1.698177,1.702677,1.693802
2020-11-15 22:22:33.619,1.588048,1.700802,1.707427,1.692052
2020-11-15 22:22:33.636,1.588548,1.710427,1.709427,1.692177
2020-11-15 22:22:33.653,1.587048,1.703802,1.718802,1.693302
2020-11-15 22:22:33.670,1.586048,1.700802,1.714927,1.694677
2020-11-15 22:22:33.687,1.586923,1.692177,1.714052,1.694177
2020-11-15 22:22:33.704,1.586173,1.698052,1.706177,1.693927
2020-11-15 22:22:33.721,1.589424,1.699052,1.704552,1.693052
2020-11-15 22:22:33.738,1.588298,1.708177,1.706802,1.691802
2020-11-15 22:22:33.755,1.587548,1.705927,1.714802,1.692427
2020-11-15 22:22:33.772,1.586048,1.704802,1.717052,1.693302
2020-11-15 22:22:33.789,1.586548,1.699427,1.714427,1.694427
2020-11-15 22:22:33.806,1.586298,1.692802,1.710677,1.693802
2020-11-15 22:22:33.823,1.589299,1.698052,1.701552,1.693802
2020-11-15 22:22:33.839,1.588673,1.699427,1.707052,1.692302
2020-11-15 22:22:33.856,1.588673,1.709052,1.707927,1.692927
2020-11-15 22:22:33.873,1.587173,1.705052,1.716302,1.692302
2020-11-15 22:22:33.890,1.586298,1.702802,1.714927,1.693427
2020-11-15 22:22:33.907,1.586048,1.693177,1.713927,1.694802
2020-11-15 22:22:33.924,1.586548,1.697052,1.709927,1.694052
2020-11-15 22:22:33.941,1.589549,1.698177,1.699677,1.693427
2020-11-15 22:22:33.958,1.587923,1.704177,1.707052,1.692052
2020-11-15 22:22:33.975,1.587548,1.708302,1.711302,1.692427
2020-11-15 22:22:33.992,1.586673,1.704427,1.720928,1.692552
2020-11-15 22:22:34.009,1.586923,1.700802,1.713677,1.693927
2020-11-15 22:22:34.026,1.586048,1.692302,1.712177,1.693427
2020-11-15 22:22:34.043,1.587548,1.696677,1.704552,1.693927
2020-11-15 22:22:34.060,1.591174,1.700677,1.706427,1.693052
2020-11-15 22:22:34.077,1.588173,1.709927,1.707302,1.692802
2020-11-15 22:22:34.094,1.587298,1.706052,1.712802,1.693052
2020-11-15 22:22:34.111,1.586173,1.704427,1.718302,1.694052
2020-11-15 22:22:34.128,1.585923,1.696927,1.713177,1.694427
2020-11-15 22:22:34.145,1.585923,1.696302,1.708302,1.694302
2020-11-15 22:22:34.162,1.590174,1.697427,1.701552,1.693302
2020-11-15 22:22:34.179,1.588798,1.701552,1.707802,1.692927
2020-11-15 22:22:34.196,1.588173,1.710427,1.709802,1.692927
2020-11-15 22:22:34.213,1.586423,1.704552,1.718552,1.692552
2020-11-15 22:22:34.230,1.586048,1.703552,1.715052,1.694552
2020-11-15 22:22:34.247,1.586548,1.692052,1.713802,1.694427
2020-11-15 22:22:34.264,1.587423,1.697677,1.707177,1.693802
2020-11-15 22:22:34.281,1.589799,1.698677,1.703427,1.693177
2020-11-15 22:22:34.298,1.588048,1.707927,1.706927,1.690927
2020-11-15 22:22:34.316,1.587923,1.711177,1.707302,1.692677
2020-11-15 22:22:34.333,1.588048,1.704927,1.715677,1.692552
2020-11-15 22:22:34.350,1.585548,1.703302,1.714052,1.693677
2020-11-15 22:22:34.367,1.587423,1.693927,1.713677,1.694927
2020-11-15 22:22:34.384,1.587298,1.696927,1.705427,1.693552
2020-11-15 22:22:34.401,1.590924,1.697927,1.706552,1.693177
2020-11-15 22:22:34.418,1.587798,1.703927,1.707302,1.692177
2020-11-15 22:22:34.435,1.588298,1.707802,1.710177,1.692302
2020-11-15 22:22:34.452,1.586423,1.703427,1.720553,1.693677
2020-11-15 22:22:34.469,1.586548,1.699427,1.713677,1.694552
2020-11-15 22:22:34.486,1.586673,1.693927,1.712677,1.693802
2020-11-15 22:22:34.503,1.585423,1.698552,1.703677,1.694927
2020-11-15 22:22:34.520,1.591049,1.701052,1.706677,1.692802
2020-11-15 22:22:34.537,1.589173,1.709427,1.707052,1.692427
2020-11-15 22:22:34.554,1.587173,1.705677,1.711052,1.693302
2020-11-15 22:22:34.571,1.586173,1.704052,1.715052,1.693302
2020-11-15 22:22:34.588,1.587048,1.697302,1.714302,1.695177
2020-11-15 22:22:34.605,1.587173,1.695927,1.709552,1.693552
2020-11-15 22:22:34.622,1.589799,1.697302,1.700802,1.693302
2020-11-15 22:22:34.639,1.588673,1.701427,1.707302,1.692177
2020-11-15 22:22:34.656,1.589048,1.710177,1.708677,1.693052
2020-11-15 22:22:34.673,1.587298,1.705302,1.718552,1.693302
2020-11-15 22:22:34.690,1.586048,1.701552,1.714802,1.694677
2020-11-15 22:22:34.707,1.586173,1.692927,1.713427,1.694927
2020-11-15 22:22:34.724,1.586798,1.697427,1.707427,1.693802
2020-11-15 22:22:34.741,1.590174,1.698177,1.702302,1.693302
2020-11-15 22:22:34.758,1.588173,1.707552,1.708052,1.691427
2020-11-15 22:22:34.775,1.586798,1.706302,1.713677,1.693302
2020-11-15 22:22:34.792,1.586423,1.704552,1.718802,1.692927
2020-11-15 22:22:34.809,1.586673,1.700677,1.714177,1.694927
2020-11-15 22:22:34.826,1.586923,1.691552,1.710927,1.693677
2020-11-15 22:22:34.843,1.588548,1.697427,1.701927,1.692802
2020-11-15 22:22:34.860,1.589924,1.698552,1.706552,1.692427
2020-11-15 22:22:34.877,1.587923,1.711177,1.707677,1.692802
2020-11-15 22:22:34.894,1.587173,1.704927,1.714802,1.693302
2020-11-15 22:22:34.911,1.585673,1.703427,1.715552,1.694052
2020-11-15 22:22:34.928,1.586048,1.694427,1.713177,1.694802
2020-11-15 22:22:34.945,1.584923,1.697052,1.710177,1.693927
2020-11-15 22:22:34.962,1.587798,1.697927,1.704677,1.693302
2020-11-15 22:22:34.979,1.588173,1.702802,1.707677,1.691927
2020-11-15 22:22:34.996,1.588423,1.709552,1.711177,1.692427
2020-11-15 22:22:35.013,1.586298,1.704427,1.720177,1.692552
2020-11-15 22:22:35.030,1.586548,1.702427,1.714177,1.693427
2020-11-15 22:22:35.047,1.585173,1.692552,1.713302,1.694302
2020-11-15 22:22:35.064,1.587423,1.697802,1.704552,1.694302
2020-11-15 22:22:35.081,1.592174,1.700427,1.706927,1.693427
2020-11-15 22:22:35.098,1.586298,1.709177,1.706802,1.692427
2020-11-15 22:22:35.115,1.586923,1.705802,1.710552,1.693302
2020-11-15 22:22:35.132,1.585298,1.704177,1.717927,1.693052
2020-11-15 22:22:35.150,1.584923,1.701677,1.714427,1.694302
2020-11-15 22:22:35.167,1.585548,1.692427,1.713177,1.694302
2020-11-15 22:22:35.184,1.586548,1.697302,1.703927,1.694052
2020-11-15 22:22:35.201,1.590049,1.698427,1.706552,1.693177
2020-11-15 22:22:35.218,1.587173,1.706677,1.707677,1.691927
2020-11-15 22:22:35.235,1.586923,1.705052,1.712177,1.692552
2020-11-15 22:22:35.252,1.585548,1.703927,1.718927,1.692177
2020-11-15 22:22:35.269,1.584923,1.700552,1.714302,1.695427
2020-11-15 22:22:35.286,1.584673,1.696802,1.711802,1.693927
2020-11-15 22:22:35.303,1.586298,1.697802,1.702552,1.694177
2020-11-15 22:22:35.320,1.588673,1.701052,1.706302,1.692677
2020-11-15 22:22:35.337,1.586923,1.711177,1.706927,1.692927
2020-11-15 22:22:35.354,1.586173,1.704927,1.713802,1.692802
2020-11-15 22:22:35.371,1.584798,1.704177,1.715052,1.693427
2020-11-15 22:22:35.388,1.585798,1.694552,1.714052,1.695427
2020-11-15 22:22:35.405,1.586423,1.696927,1.707427,1.693677
2020-11-15 22:22:35.422,1.589924,1.698177,1.703802,1.693552
2020-11-15 22:22:35.439,1.587548,1.701927,1.707302,1.691927
2020-11-15 22:22:35.456,1.587548,1.710177,1.710052,1.692302
2020-11-15 22:22:35.473,1.584548,1.704427,1.720428,1.693927
2020-11-15 22:22:35.490,1.583673,1.700177,1.714802,1.695427
2020-11-15 22:22:35.507,1.585173,1.691927,1.713427,1.694927
2020-11-15 22:22:35.524,1.586548,1.698177,1.705052,1.693802
2020-11-15 22:22:35.541,1.589924,1.699052,1.705677,1.693802
2020-11-15 22:22:35.558,1.587798,1.708677,1.706927,1.692802
2020-11-15 22:22:35.575,1.586673,1.706052,1.710677,1.693052
2020-11-15 22:22:35.592,1.585423,1.704927,1.715052,1.693052
2020-11-15 22:22:35.609,1.585173,1.699302,1.713927,1.695177
2020-11-15 22:22:35.626,1.586548,1.694677,1.711927,1.694052
2020-11-15 22:22:35.643,1.586548,1.697802,1.703552,1.694052
2020-11-15 22:22:35.660,1.589048,1.700177,1.707427,1.693802
2020-11-15 22:22:35.677,1.587423,1.709302,1.708427,1.692552
2020-11-15 22:22:35.694,1.586923,1.705052,1.717052,1.692552
2020-11-15 22:22:35.711,1.585798,1.704302,1.714802,1.693302
2020-11-15 22:22:35.728,1.586048,1.696552,1.714427,1.695302
2020-11-15 22:22:35.745,1.585048,1.695302,1.710052,1.694677
2020-11-15 22:22:35.762,1.588798,1.698052,1.700802,1.693677
2020-11-15 22:22:35.779,1.587923,1.705302,1.707427,1.691552
2020-11-15 22:22:35.796,1.588423,1.707552,1.709177,1.692802
2020-11-15 22:22:35.813,1.585923,1.704927,1.717552,1.693052
2020-11-15 22:22:35.830,1.585298,1.701302,1.714802,1.694302
2020-11-15 22:22:35.847,1.585673,1.692552,1.712677,1.694427
2020-11-15 22:22:35.864,1.586173,1.698177,1.703302,1.693927
2020-11-15 22:22:35.881,1.589674,1.698802,1.705677,1.694052
2020-11-15 22:22:35.898,1.587423,1.707177,1.707552,1.691927
2020-11-15 22:22:35.915,1.587423,1.705177,1.713677,1.692802
2020-11-15 22:22:35.932,1.585673,1.704302,1.718427,1.692802
2020-11-15 22:22:35.949,1.585298,1.700177,1.714177,1.693177
2020-11-15 22:22:35.967,1.585298,1.693677,1.713802,1.694677
2020-11-15 22:22:35.984,1.585798,1.696927,1.706302,1.694052
2020-11-15 22:22:36.001,1.590049,1.699427,1.704802,1.693052
2020-11-15 22:22:36.018,1.587548,1.708302,1.707552,1.692552
2020-11-15 22:22:36.035,1.586548,1.705552,1.710552,1.692177
2020-11-15 22:22:36.052,1.585048,1.704802,1.720302,1.692552
2020-11-15 22:22:36.069,1.585548,1.700052,1.713927,1.695052
2020-11-15 22:22:36.086,1.585423,1.693177,1.711052,1.694427
2020-11-15 22:22:36.103,1.589299,1.698302,1.701302,1.693927
2020-11-15 22:22:36.120,1.587798,1.700302,1.707052,1.692802
2020-11-15 22:22:36.137,1.587173,1.709302,1.708052,1.692427
2020-11-15 22:22:36.154,1.586048,1.706177,1.717052,1.692552
2020-11-15 22:22:36.171,1.585548,1.704302,1.714427,1.692927
2020-11-15 22:22:36.188,1.585423,1.697802,1.713552,1.695177
2020-11-15 22:22:36.205,1.585048,1.696927,1.710427,1.694177
2020-11-15 22:22:36.222,1.589048,1.698677,1.700927,1.693802
2020-11-15 22:22:36.239,1.587298,1.704677,1.706802,1.692677
2020-11-15 22:22:36.256,1.586923,1.708302,1.708677,1.693052
2020-11-15 22:22:36.273,1.585298,1.705177,1.717302,1.693302
2020-11-15 22:22:36.290,1.584798,1.701552,1.714052,1.694052
2020-11-15 22:22:36.307,1.585048,1.693927,1.712552,1.694177
2020-11-15 22:22:36.324,1.586548,1.697552,1.704177,1.693802
2020-11-15 22:22:36.341,1.589674,1.698177,1.706802,1.693302
2020-11-15 22:22:36.358,1.586673,1.705677,1.707802,1.691052
2020-11-15 22:22:36.375,1.586798,1.705927,1.711802,1.692552
2020-11-15 22:22:36.392,1.585173,1.704177,1.719427,1.692927
2020-11-15 22:22:36.409,1.585673,1.696927,1.713927,1.695177
2020-11-15 22:22:36.426,1.585923,1.696552,1.711427,1.694302
2020-11-15 22:22:36.443,1.586423,1.698302,1.702177,1.694052
2020-11-15 22:22:36.460,1.588298,1.701427,1.706177,1.692927
2020-11-15 22:22:36.477,1.587423,1.711052,1.707427,1.692177
2020-11-15 22:22:36.494,1.587673,1.705177,1.718927,1.692927
2020-11-15 22:22:36.511,1.585423,1.703802,1.714927,1.693802
2020-11-15 22:22:36.528,1.585423,1.695427,1.714052,1.695177
2020-11-15 22:22:36.545,1.585798,1.697177,1.708302,1.694177
2020-11-15 22:22:36.562,1.589424,1.697552,1.703427,1.693427
2020-11-15 22:22:36.579,1.587923,1.701802,1.707427,1.692427
2020-11-15 22:22:36.596,1.586673,1.710677,1.709927,1.693052
2020-11-15 22:22:36.613,1.585673,1.704927,1.719552,1.692927
2020-11-15 22:22:36.630,1.585548,1.700927,1.714677,1.695177
2020-11-15 22:22:36.647,1.584923,1.691927,1.713302,1.694177
2020-11-15 22:22:36.664,1.585798,1.697927,1.705302,1.693927
2020-11-15 22:22:36.681,1.590174,1.699427,1.705552,1.692927
2020-11-15 22:22:36.698,1.587673,1.708677,1.708052,1.692427
2020-11-15 22:22:36.715,1.586923,1.705427,1.715052,1.692677
2020-11-15 22:22:36.732,1.584923,1.705052,1.716052,1.693302
2020-11-15 22:22:36.749,1.585673,1.699677,1.714427,1.694802
2020-11-15 22:22:36.766,1.584798,1.692927,1.710427,1.694052
2020-11-15 22:22:36.783,1.589173,1.696052,1.703552,1.693427
2020-11-15 22:22:36.801,1.589924,1.697677,1.706927,1.693552
2020-11-15 22:22:36.818,1.587048,1.708802,1.707802,1.693552
2020-11-15 22:22:36.835,1.587048,1.705302,1.711052,1.693177
2020-11-15 22:22:36.852,1.585298,1.704677,1.721178,1.693802
2020-11-15 22:22:36.869,1.584923,1.697677,1.713927,1.695052
2020-11-15 22:22:36.886,1.585923,1.695552,1.712302,1.694302
2020-11-15 22:22:36.903,1.586173,1.698052,1.702927,1.694177
2020-11-15 22:22:36.920,1.589173,1.701177,1.707302,1.693177
2020-11-15 22:22:36.937,1.587423,1.710052,1.709052,1.692427
2020-11-15 22:22:36.954,1.585923,1.705052,1.718052,1.692427
2020-11-15 22:22:36.971,1.585298,1.704427,1.715677,1.692677
2020-11-15 22:22:36.988,1.585798,1.695552,1.714427,1.695052
2020-11-15 22:22:37.005,1.585923,1.696427,1.709177,1.693802
2020-11-15 22:22:37.022,1.588548,1.698802,1.702677,1.693427
2020-11-15 22:22:37.039,1.587048,1.706677,1.708177,1.692302
2020-11-15 22:22:37.056,1.587298,1.706052,1.709302,1.693052
2020-11-15 22:22:37.073,1.585798,1.705052,1.718802,1.693177
2020-11-15 22:22:37.090,1.585298,1.701427,1.714052,1.695177
2020-11-15 22:22:37.107,1.585048,1.692927,1.712927,1.694427
2020-11-15 22:22:37.124,1.585798,1.697802,1.702802,1.693427
2020-11-15 22:22:37.141,1.589424,1.699177,1.705927,1.693802
2020-11-15 22:22:37.158,1.587048,1.708552,1.707677,1.692177
2020-11-15 22:22:37.175,1.586423,1.705302,1.714427,1.692927
2020-11-15 22:22:37.192,1.585423,1.704302,1.716552,1.693052
2020-11-15 22:22:37.209,1.585673,1.700427,1.713927,1.695552
2020-11-15 22:22:37.226,1.586048,1.697677,1.710802,1.693802
2020-11-15 22:22:37.243,1.588048,1.697802,1.701677,1.693677
2020-11-15 22:22:37.260,1.588298,1.702552,1.706802,1.692677
2020-11-15 22:22:37.276,1.587298,1.711177,1.707177,1.692802
2020-11-15 22:22:37.293,1.586173,1.705177,1.715177,1.692927
2020-11-15 22:22:37.310,1.584173,1.702927,1.714552,1.693802
2020-11-15 22:22:37.327,1.585173,1.694427,1.713677,1.694427
2020-11-15 22:22:37.344,1.585923,1.697177,1.705802,1.693302
2020-11-15 22:22:37.361,1.590174,1.698677,1.706302,1.693552
2020-11-15 22:22:37.378,1.587923,1.703427,1.707802,1.691802
2020-11-15 22:22:37.395,1.587673,1.707802,1.711177,1.693302
2020-11-15 22:22:37.412,1.586048,1.704677,1.720302,1.694302
2020-11-15 22:22:37.429,1.586173,1.700302,1.714427,1.694927
2020-11-15 22:22:37.446,1.585673,1.694177,1.713302,1.694802
2020-11-15 22:22:37.463,1.586548,1.698677,1.703677,1.694677
2020-11-15 22:22:37.480,1.589674,1.700552,1.706802,1.692927
2020-11-15 22:22:37.497,1.587173,1.709677,1.706552,1.692552
2020-11-15 22:22:37.514,1.585798,1.705552,1.717052,1.692677
2020-11-15 22:22:37.531,1.585923,1.704552,1.715052,1.693427
2020-11-15 22:22:37.548,1.585423,1.697302,1.713927,1.694802
2020-11-15 22:22:37.565,1.586673,1.695177,1.710052,1.694177
2020-11-15 22:22:37.582,1.588548,1.698177,1.700677,1.693552
2020-11-15 22:22:37.599,1.588173,1.705427,1.707552,1.692052
2020-11-15 22:22:37.617,1.587673,1.710927,1.707552,1.692802
2020-11-15 22:22:37.634,1.587673,1.705302,1.712302,1.692677
2020-11-15 22:22:37.651,1.585673,1.704427,1.718427,1.693677
2020-11-15 22:22:37.668,1.584798,1.695927,1.713302,1.695677
2020-11-15 22:22:37.685,1.585173,1.696927,1.711052,1.694302
2020-11-15 22:22:37.702,1.587798,1.698427,1.701927,1.694052
2020-11-15 22:22:37.719,1.586923,1.702052,1.707927,1.692927
2020-11-15 22:22:37.736,1.588423,1.711177,1.709677,1.692177
2020-11-15 22:22:37.753,1.586673,1.704802,1.719302,1.692802
2020-11-15 22:22:37.770,1.585798,1.703177,1.714927,1.693427
2020-11-15 22:22:37.787,1.585673,1.694802,1.714302,1.694677
2020-11-15 22:22:37.804,1.586798,1.696677,1.706802,1.694177
2020-11-15 22:22:37.821,1.589549,1.698927,1.705177,1.693302
2020-11-15 22:22:37.838,1.587923,1.707677,1.707427,1.692552
2020-11-15 22:22:37.855,1.586923,1.705427,1.710427,1.693552
2020-11-15 22:22:37.872,1.585798,1.704677,1.719927,1.693302
2020-11-15 22:22:37.889,1.584923,1.701302,1.714052,1.695052
2020-11-15 22:22:37.907,1.584923,1.693177,1.713552,1.694052
2020-11-15 22:22:37.924,1.586423,1.698052,1.705177,1.694177
2020-11-15 22:22:37.941,1.590174,1.700052,1.706552,1.693427
2020-11-15 22:22:37.958,1.587048,1.709677,1.707552,1.692802
2020-11-15 22:22:37.975,1.587048,1.705927,1.711052,1.693677
2020-11-15 22:22:37.992,1.585423,1.704802,1.720678,1.693802
2020-11-15 22:22:38.009,1.584048,1.699052,1.713677,1.694927
2020-11-15 22:22:38.026,1.586048,1.694552,1.710927,1.693802
2020-11-15 22:22:38.043,1.587923,1.697677,1.701052,1.694302
2020-11-15 22:22:38.060,1.587048,1.701177,1.707552,1.692677
2020-11-15 22:22:38.077,1.587048,1.709427,1.708177,1.692302
2020-11-15 22:22:38.094,1.585548,1.704427,1.717177,1.692052
2020-11-15 22:22:38.111,1.584798,1.702677,1.714802,1.694177
2020-11-15 22:22:38.128,1.585673,1.693927,1.713552,1.694552
2020-11-15 22:22:38.145,1.585673,1.697052,1.709427,1.694427
2020-11-15 22:22:38.162,1.588298,1.698177,1.701177,1.694302
2020-11-15 22:22:38.179,1.587673,1.706052,1.707302,1.692802
2020-11-15 22:22:38.196,1.587923,1.707302,1.708427,1.692677
2020-11-15 22:22:38.213,1.585298,1.704677,1.720928,1.692927
2020-11-15 22:22:38.229,1.584798,1.701427,1.714177,1.694927
2020-11-15 22:22:38.246,1.585798,1.692802,1.712052,1.694552
2020-11-15 22:22:38.263,1.586173,1.697427,1.703302,1.693927
2020-11-15 22:22:38.280,1.589674,1.699052,1.706177,1.693552
2020-11-15 22:22:38.297,1.586923,1.706552,1.708177,1.693052
2020-11-15 22:22:38.314,1.586548,1.705302,1.712552,1.692927
2020-11-15 22:22:38.331,1.585173,1.704677,1.719302,1.693802
2020-11-15 22:22:38.348,1.585423,1.696177,1.714177,1.695552
2020-11-15 22:22:38.365,1.585048,1.697802,1.711177,1.694177
2020-11-15 22:22:38.382,1.586048,1.698427,1.701677,1.694552
2020-11-15 22:22:38.399,1.587923,1.701802,1.707677,1.692677
2020-11-15 22:22:38.416,1.586923,1.710677,1.710052,1.693177
2020-11-15 22:22:38.433,1.585423,1.704927,1.714552,1.692927
2020-11-15 22:22:38.452,1.584173,1.704552,1.717052,1.692927
2020-11-15 22:22:38.469,1.585548,1.701052,1.713802,1.694677
2020-11-15 22:22:38.486,1.584798,1.692427,1.711302,1.693927
2020-11-15 22:22:38.503,1.586798,1.697302,1.701552,1.693677
2020-11-15 22:22:38.520,1.587548,1.699552,1.706552,1.692427
2020-11-15 22:22:38.537,1.586048,1.710552,1.707552,1.692802
2020-11-15 22:22:38.553,1.586173,1.704927,1.716677,1.693302
2020-11-15 22:22:38.570,1.584923,1.703052,1.714552,1.693802
2020-11-15 22:22:38.588,1.585548,1.693677,1.713177,1.694177
2020-11-15 22:22:38.604,1.585423,1.696677,1.709427,1.693927
2020-11-15 22:22:38.621,1.587673,1.698552,1.706177,1.693927
2020-11-15 22:22:38.638,1.587048,1.704302,1.707677,1.692052
2020-11-15 22:22:38.655,1.586548,1.708552,1.711177,1.692802
2020-11-15 22:22:38.672,1.584673,1.704802,1.720803,1.693052
2020-11-15 22:22:38.689,1.585423,1.701677,1.714552,1.694177
2020-11-15 22:22:38.706,1.585173,1.693177,1.713302,1.694052
2020-11-15 22:22:38.723,1.585798,1.698552,1.703552,1.693677
2020-11-15 22:22:38.740,1.590174,1.700927,1.706302,1.693302
2020-11-15 22:22:38.757,1.586923,1.709802,1.706802,1.692177
2020-11-15 22:22:38.774,1.586548,1.705552,1.711677,1.693177
2020-11-15 22:22:38.791,1.586173,1.705052,1.719302,1.693427
2020-11-15 22:22:38.808,1.585423,1.697302,1.713052,1.695677
2020-11-15 22:22:38.825,1.585798,1.695927,1.710052,1.694802
2020-11-15 22:22:38.842,1.587923,1.698427,1.701302,1.694052
2020-11-15 22:22:38.859,1.588298,1.700177,1.706677,1.693052
2020-11-15 22:22:38.876,1.587173,1.710677,1.709052,1.692677
2020-11-15 22:22:38.893,1.585923,1.704677,1.718302,1.692552
2020-11-15 22:22:38.910,1.584798,1.703552,1.715177,1.694927
2020-11-15 22:22:38.927,1.585798,1.692927,1.713177,1.694552
2020-11-15 22:22:38.944,1.585923,1.698052,1.708302,1.694052
2020-11-15 22:22:38.961,1.589674,1.698802,1.702427,1.693927
2020-11-15 22:22:38.978,1.587173,1.706802,1.706302,1.692427
2020-11-15 22:22:38.995,1.587173,1.705677,1.709177,1.692802
2020-11-15 22:22:39.012,1.585798,1.705552,1.719302,1.693677
2020-11-15 22:22:39.029,1.585173,1.701052,1.714177,1.694552
2020-11-15 22:22:39.046,1.586048,1.691677,1.711927,1.694427
2020-11-15 22:22:39.063,1.587048,1.697802,1.702552,1.693927
2020-11-15 22:22:39.080,1.590049,1.699177,1.706427,1.693302
2020-11-15 22:22:39.097,1.586798,1.707427,1.707927,1.691677
2020-11-15 22:22:39.114,1.586423,1.705177,1.715052,1.693302
2020-11-15 22:22:39.131,1.584673,1.703802,1.717552,1.693677
2020-11-15 22:22:39.148,1.584923,1.695052,1.713552,1.695552
2020-11-15 22:22:39.165,1.585173,1.697302,1.711177,1.694302
2020-11-15 22:22:39.182,1.587423,1.698427,1.700552,1.694677
2020-11-15 22:22:39.199,1.587923,1.702177,1.707427,1.691927
2020-11-15 22:22:39.216,1.586673,1.711302,1.710427,1.693177
2020-11-15 22:22:39.233,1.585423,1.705052,1.720052,1.692802
2020-11-15 22:22:39.250,1.585423,1.702427,1.715052,1.692427
2020-11-15 22:22:39.268,1.585548,1.699177,1.714552,1.694802
2020-11-15 22:22:39.285,1.585673,1.693927,1.710427,1.693302
2020-11-15 22:22:39.302,1.588423,1.697177,1.700927,1.693802
2020-11-15 22:22:39.319,1.587548,1.703927,1.707302,1.692427
2020-11-15 22:22:39.336,1.586923,1.709302,1.708177,1.692927
2020-11-15 22:22:39.353,1.586173,1.705177,1.717427,1.693052
2020-11-15 22:22:39.370,1.585298,1.703052,1.714802,1.694177
2020-11-15 22:22:39.387,1.585298,1.693552,1.713302,1.694927
2020-11-15 22:22:39.404,1.585423,1.696927,1.709177,1.694052
2020-11-15 22:22:39.421,1.587673,1.698302,1.706427,1.693677
2020-11-15 22:22:39.438,1.587798,1.705052,1.707802,1.692052
2020-11-15 22:22:39.455,1.586548,1.707177,1.711302,1.692927
2020-11-15 22:22:39.472,1.585673,1.704427,1.720803,1.693302
2020-11-15 22:22:39.489,1.585798,1.700677,1.714052,1.694052
2020-11-15 22:22:39.506,1.585923,1.692677,1.712802,1.694677
2020-11-15 22:22:39.523,1.586923,1.698552,1.703552,1.694427
2020-11-15 22:22:39.540,1.590049,1.701302,1.706427,1.692927
2020-11-15 22:22:39.557,1.587298,1.710052,1.707552,1.692552
2020-11-15 22:22:39.574,1.586423,1.705302,1.713302,1.693552
2020-11-15 22:22:39.591,1.585423,1.704927,1.718427,1.693927
2020-11-15 22:22:39.608,1.585423,1.696677,1.713802,1.695427
2020-11-15 22:22:39.625,1.586548,1.696927,1.708802,1.694552
2020-11-15 22:22:39.642,1.589299,1.698552,1.702552,1.694177
2020-11-15 22:22:39.659,1.587798,1.701802,1.707427,1.692302
2020-11-15 22:22:39.676,1.587673,1.710302,1.709302,1.692302
2020-11-15 22:22:39.693,1.585048,1.704677,1.719552,1.693552
2020-11-15 22:22:39.710,1.584798,1.701802,1.715427,1.694427
2020-11-15 22:22:39.727,1.586298,1.692802,1.714177,1.694802
2020-11-15 22:22:39.744,1.585673,1.698302,1.707052,1.693927
2020-11-15 22:22:39.761,1.588798,1.699302,1.703177,1.693802
2020-11-15 22:22:39.778,1.587298,1.707927,1.706927,1.692177
2020-11-15 22:22:39.795,1.587298,1.705427,1.713427,1.693302
2020-11-15 22:22:39.812,1.584173,1.705177,1.718552,1.694052
2020-11-15 22:22:39.829,1.585673,1.701177,1.713927,1.694552
2020-11-15 22:22:39.845,1.585798,1.691927,1.712177,1.693927
2020-11-15 22:22:39.862,1.587673,1.697802,1.702302,1.693927
2020-11-15 22:22:39.879,1.588548,1.698927,1.706177,1.693052
2020-11-15 22:22:39.896,1.587798,1.708552,1.707552,1.692552
2020-11-15 22:22:39.913,1.586923,1.705177,1.715052,1.693052
2020-11-15 22:22:39.930,1.585298,1.703177,1.715677,1.693677
2020-11-15 22:22:39.947,1.585173,1.695427,1.714177,1.695052
2020-11-15 22:22:39.964,1.584673,1.697302,1.710677,1.694177
2020-11-15 22:22:39.981,1.588048,1.698302,1.701052,1.693802
2020-11-15 22:22:39.998,1.587298,1.703177,1.707677,1.692552
2020-11-15 22:22:40.015,1.586298,1.710427,1.710802,1.693802
2020-11-15 22:22:40.032,1.585423,1.704677,1.719677,1.693177
2020-11-15 22:22:40.049,1.585923,1.702677,1.714427,1.693927
2020-11-15 22:22:40.066,1.586048,1.693552,1.713427,1.694677
2020-11-15 22:22:40.083,1.585548,1.694052,1.710302,1.693677
2020-11-15 22:22:40.102,1.588048,1.697552,1.701677,1.693552
2020-11-15 22:22:40.119,1.587423,1.700802,1.707427,1.692677
2020-11-15 22:22:40.136,1.587048,1.708302,1.708927,1.693177
2020-11-15 22:22:40.153,1.586548,1.705552,1.717927,1.693052
2020-11-15 22:22:40.170,1.585173,1.702802,1.714427,1.693927
2020-11-15 22:22:40.187,1.584548,1.693927,1.713802,1.694427
2020-11-15 22:22:40.204,1.586673,1.697927,1.708802,1.694427
2020-11-15 22:22:40.221,1.588673,1.698677,1.702177,1.693677
2020-11-15 22:22:40.238,1.587673,1.706302,1.706927,1.692677
2020-11-15 22:22:40.255,1.587298,1.706677,1.708802,1.693052
2020-11-15 22:22:40.272,1.586423,1.705177,1.718802,1.693052
2020-11-15 22:22:40.289,1.585423,1.702052,1.714302,1.694927
2020-11-15 22:22:40.306,1.585423,1.692427,1.712552,1.695427
2020-11-15 22:22:40.323,1.586923,1.697677,1.703552,1.693927
2020-11-15 22:22:40.340,1.589424,1.699427,1.706927,1.693802
2020-11-15 22:22:40.357,1.587173,1.707302,1.707177,1.691677
2020-11-15 22:22:40.374,1.586298,1.705677,1.713927,1.692677
2020-11-15 22:22:40.391,1.585548,1.704427,1.718677,1.692927
2020-11-15 22:22:40.408,1.585048,1.695927,1.714427,1.695427
2020-11-15 22:22:40.425,1.586173,1.697677,1.711552,1.694677
2020-11-15 22:22:40.442,1.587548,1.698427,1.702427,1.694302
2020-11-15 22:22:40.459,1.589299,1.702677,1.706427,1.692677
2020-11-15 22:22:40.476,1.587548,1.711177,1.707927,1.693302
2020-11-15 22:22:40.493,1.586048,1.705177,1.718802,1.693302
2020-11-15 22:22:40.510,1.585173,1.703927,1.714927,1.693927
2020-11-15 22:22:40.527,1.585798,1.694927,1.714677,1.695302
2020-11-15 22:22:40.544,1.586798,1.697552,1.707677,1.694427
2020-11-15 22:22:40.561,1.589173,1.698302,1.704302,1.694052
2020-11-15 22:22:40.578,1.587673,1.701927,1.707177,1.692427
2020-11-15 22:22:40.595,1.587173,1.709677,1.710927,1.693302
2020-11-15 22:22:40.612,1.586423,1.704677,1.720428,1.693927
2020-11-15 22:22:40.629,1.585048,1.701052,1.714302,1.694677
2020-11-15 22:22:40.646,1.585673,1.692552,1.713927,1.694802
2020-11-15 22:22:40.663,1.587298,1.698302,1.705677,1.694552
2020-11-15 22:22:40.680,1.589549,1.699927,1.705677,1.693677
2020-11-15 22:22:40.697,1.587048,1.709552,1.708177,1.692302
2020-11-15 22:22:40.714,1.586423,1.706052,1.715802,1.692927
2020-11-15 22:22:40.731,1.585298,1.705177,1.716052,1.693427
2020-11-15 22:22:40.748,1.585673,1.698802,1.713802,1.694677
2020-11-15 22:22:40.765,1.585548,1.694052,1.710802,1.693302
2020-11-15 22:22:40.781,1.588048,1.698302,1.701677,1.693802
2020-11-15 22:22:40.799,1.587798,1.703802,1.707552,1.692677
2020-11-15 22:22:40.816,1.586798,1.709677,1.708302,1.693427
2020-11-15 22:22:40.833,1.586048,1.704677,1.717802,1.693052
2020-11-15 22:22:40.850,1.585548,1.702802,1.715177,1.694052
2020-11-15 22:22:40.867,1.586048,1.693927,1.713552,1.695552
2020-11-15 22:22:40.884,1.586048,1.697552,1.710052,1.694427
2020-11-15 22:22:40.901,1.588298,1.698927,1.700927,1.692552
2020-11-15 22:22:40.919,1.589799,1.701677,1.706177,1.693177
2020-11-15 22:22:40.936,1.587548,1.711427,1.709177,1.692552
2020-11-15 22:22:40.953,1.586923,1.705677,1.718427,1.692927
2020-11-15 22:22:40.970,1.585423,1.704802,1.715802,1.693052
2020-11-15 22:22:40.987,1.585048,1.695927,1.714302,1.694927
2020-11-15 22:22:41.004,1.586923,1.697677,1.708802,1.694552
2020-11-15 22:22:41.021,1.589424,1.698302,1.702802,1.693677
2020-11-15 22:22:41.038,1.587923,1.707302,1.707677,1.692177
2020-11-15 22:22:41.055,1.587548,1.706427,1.709927,1.693552
2020-11-15 22:22:41.072,1.586298,1.705177,1.719052,1.693427
2020-11-15 22:22:41.089,1.585423,1.702302,1.714802,1.695677
2020-11-15 22:22:41.106,1.584798,1.691802,1.713052,1.695302
2020-11-15 22:22:41.123,1.586298,1.698052,1.703302,1.694802
2020-11-15 22:22:41.140,1.589549,1.699927,1.707177,1.693802
2020-11-15 22:22:41.157,1.588048,1.708552,1.707677,1.692177
2020-11-15 22:22:41.174,1.586673,1.706052,1.713677,1.693052
2020-11-15 22:22:41.191,1.585173,1.704052,1.718677,1.693177
2020-11-15 22:22:41.208,1.586173,1.700552,1.714052,1.694802
2020-11-15 22:22:41.225,1.585798,1.691927,1.711427,1.694177
2020-11-15 22:22:41.242,1.587923,1.698427,1.702052,1.694177
2020-11-15 22:22:41.259,1.589299,1.702677,1.706802,1.692802
2020-11-15 22:22:41.276,1.587798,1.711802,1.707552,1.693302
2020-11-15 22:22:41.293,1.586923,1.704927,1.714802,1.693302
2020-11-15 22:22:41.310,1.585298,1.704052,1.715552,1.693802
2020-11-15 22:22:41.327,1.585423,1.694677,1.713927,1.696302
2020-11-15 22:22:41.343,1.586423,1.697677,1.707052,1.694177
2020-11-15 22:22:41.360,1.590174,1.698427,1.704927,1.694302
2020-11-15 22:22:41.377,1.587798,1.703052,1.707927,1.692302
2020-11-15 22:22:41.394,1.587173,1.709552,1.710552,1.692177
2020-11-15 22:22:41.411,1.586298,1.705177,1.720553,1.692927
2020-11-15 22:22:41.428,1.585673,1.700927,1.714802,1.695677
2020-11-15 22:22:41.445,1.585673,1.692552,1.713802,1.694802
2020-11-15 22:22:41.462,1.586923,1.698552,1.704927,1.694427
2020-11-15 22:22:41.479,1.589549,1.700302,1.706802,1.693802
2020-11-15 22:22:41.496,1.587423,1.709427,1.707302,1.692552
2020-11-15 22:22:41.513,1.586923,1.705802,1.710802,1.693927
2020-11-15 22:22:41.530,1.585798,1.705052,1.715677,1.693052
2020-11-15 22:22:41.547,1.585798,1.699927,1.714427,1.695677
2020-11-15 22:22:41.564,1.585798,1.694677,1.710927,1.694052
2020-11-15 22:22:41.582,1.586548,1.698802,1.701427,1.694802
2020-11-15 22:22:41.599,1.588173,1.700927,1.707302,1.693052
2020-11-15 22:22:41.616,1.588173,1.709427,1.708552,1.692677
2020-11-15 22:22:41.633,1.586548,1.706302,1.717927,1.692802
2020-11-15 22:22:41.650,1.585548,1.704802,1.715177,1.693177
2020-11-15 22:22:41.667,1.586173,1.698052,1.714552,1.695302
2020-11-15 22:22:41.683,1.586423,1.698177,1.709802,1.694552
2020-11-15 22:22:41.700,1.589299,1.698802,1.701552,1.694427
2020-11-15 22:22:41.718,1.587423,1.705302,1.707427,1.692552
2020-11-15 22:22:41.735,1.587298,1.710427,1.707302,1.693427
2020-11-15 22:22:41.753,1.587298,1.706427,1.712927,1.692802
2020-11-15 22:22:41.770,1.585423,1.704927,1.718552,1.694552
2020-11-15 22:22:41.787,1.585173,1.696802,1.714177,1.695802
2020-11-15 22:22:41.804,1.586298,1.697677,1.709177,1.694177
2020-11-15 22:22:41.821,1.589549,1.698427,1.702802,1.694427
2020-11-15 22:22:41.838,1.588798,1.701552,1.707552,1.692927
2020-11-15 22:22:41.855,1.588048,1.710927,1.709927,1.692927
2020-11-15 22:22:41.872,1.586548,1.704177,1.719677,1.692802
2020-11-15 22:22:41.889,1.586048,1.703052,1.715427,1.695052
2020-11-15 22:22:41.906,1.586423,1.692302,1.713802,1.694677
2020-11-15 22:22:41.923,1.586173,1.698677,1.707677,1.693177
2020-11-15 22:22:41.940,1.588423,1.700427,1.704677,1.694302
2020-11-15 22:22:41.957,1.588048,1.708052,1.706927,1.692552
2020-11-15 22:22:41.974,1.586923,1.706177,1.710052,1.693802
2020-11-15 22:22:41.991,1.585798,1.704927,1.718177,1.693927
2020-11-15 22:22:42.008,1.585298,1.701177,1.714427,1.695427
2020-11-15 22:22:42.025,1.585548,1.691927,1.712052,1.694302
2020-11-15 22:22:42.042,1.587173,1.698052,1.702302,1.694427
2020-11-15 22:22:42.059,1.589048,1.699927,1.706802,1.693677
2020-11-15 22:22:42.076,1.588298,1.707927,1.707677,1.691427
2020-11-15 22:22:42.093,1.586673,1.705552,1.715302,1.693052
2020-11-15 22:22:42.110,1.585423,1.704052,1.716052,1.694427
2020-11-15 22:22:42.127,1.585923,1.695177,1.714302,1.695552
2020-11-15 22:22:42.143,1.585548,1.697677,1.710427,1.694177
2020-11-15 22:22:42.160,1.587923,1.698802,1.701052,1.693927
2020-11-15 22:22:42.177,1.587173,1.703302,1.706302,1.693177
2020-11-15 22:22:42.194,1.588298,1.710802,1.710427,1.692677
2020-11-15 22:22:42.211,1.586298,1.705177,1.720428,1.693302
2020-11-15 22:22:42.228,1.585423,1.703177,1.714802,1.693927
2020-11-15 22:22:42.245,1.585923,1.693802,1.713927,1.694427
2020-11-15 22:22:42.262,1.586673,1.697427,1.704677,1.694427
2020-11-15 22:22:42.279,1.590049,1.698052,1.706427,1.694302
2020-11-15 22:22:42.296,1.587798,1.709302,1.707802,1.692552
2020-11-15 22:22:42.313,1.587048,1.705802,1.711302,1.693802
2020-11-15 22:22:42.330,1.585548,1.704802,1.721178,1.694427
2020-11-15 22:22:42.347,1.585298,1.699177,1.714302,1.695302
2020-11-15 22:22:42.364,1.585173,1.694677,1.713052,1.694427
2020-11-15 22:22:42.381,1.586048,1.698177,1.704052,1.694052
2020-11-15 22:22:42.398,1.589799,1.701177,1.707677,1.693802
2020-11-15 22:22:42.415,1.588423,1.709802,1.708427,1.693177
2020-11-15 22:22:42.432,1.586798,1.706177,1.718427,1.692677
2020-11-15 22:22:42.449,1.585423,1.704677,1.716052,1.693802
2020-11-15 22:22:42.466,1.585423,1.697552,1.714052,1.694802
2020-11-15 22:22:42.483,1.585548,1.695302,1.710427,1.694427
2020-11-15 22:22:42.500,1.588673,1.698552,1.701427,1.694552
2020-11-15 22:22:42.518,1.588048,1.701427,1.707927,1.693177
2020-11-15 22:22:42.535,1.588423,1.710552,1.709302,1.692802
2020-11-15 22:22:42.552,1.586548,1.705177,1.719302,1.692302
2020-11-15 22:22:42.570,1.586423,1.705052,1.719177,1.692677
2020-11-15 22:22:42.587,1.586798,1.700302,1.714302,1.695927
2020-11-15 22:22:42.604,1.585923,1.697552,1.712427,1.694302
2020-11-15 22:22:42.621,1.588048,1.698677,1.702177,1.694302
2020-11-15 22:22:42.638,1.589299,1.701677,1.706677,1.692552
2020-11-15 22:22:42.655,1.588048,1.710927,1.707802,1.693302
2020-11-15 22:22:42.672,1.586923,1.705177,1.714177,1.693427
2020-11-15 22:22:42.689,1.586173,1.703802,1.716052,1.693802
2020-11-15 22:22:42.706,1.586173,1.695677,1.714302,1.695552
2020-11-15 22:22:42.723,1.587423,1.697677,1.707552,1.693927
2020-11-15 22:22:42.740,1.589173,1.698427,1.704302,1.694677
2020-11-15 22:22:42.757,1.588298,1.702677,1.707802,1.692427
2020-11-15 22:22:42.774,1.587173,1.711427,1.710302,1.693302
2020-11-15 22:22:42.791,1.586173,1.705427,1.720302,1.693677
2020-11-15 22:22:42.808,1.586923,1.701552,1.715552,1.695302
2020-11-15 22:22:42.825,1.586298,1.692052,1.713802,1.694677
2020-11-15 22:22:42.842,1.585673,1.698677,1.706427,1.694552
2020-11-15 22:22:42.859,1.588298,1.700302,1.705677,1.693677
2020-11-15 22:22:42.876,1.588048,1.709302,1.707552,1.692677
2020-11-15 22:22:42.893,1.587423,1.705552,1.715302,1.693427
2020-11-15 22:22:42.910,1.585923,1.704927,1.717177,1.693427
2020-11-15 22:22:42.927,1.585923,1.699927,1.714052,1.695427
2020-11-15 22:22:42.944,1.586673,1.693427,1.711552,1.694552
2020-11-15 22:22:42.961,1.588548,1.697552,1.703052,1.694427
2020-11-15 22:22:42.978,1.588548,1.699927,1.707802,1.692677
2020-11-15 22:22:42.994,1.588798,1.710802,1.708427,1.693177
2020-11-15 22:22:43.011,1.587048,1.705427,1.716927,1.693802
2020-11-15 22:22:43.028,1.586173,1.703802,1.715427,1.694177
2020-11-15 22:22:43.045,1.585923,1.694052,1.713552,1.695927
2020-11-15 22:22:43.062,1.586298,1.697802,1.705927,1.693802
2020-11-15 22:22:43.079,1.591049,1.698802,1.706802,1.694677
2020-11-15 22:22:43.096,1.588298,1.704302,1.708677,1.692427
2020-11-15 22:22:43.113,1.588423,1.708302,1.710927,1.692927
2020-11-15 22:22:43.130,1.586548,1.704802,1.721428,1.693302
2020-11-15 22:22:43.147,1.587173,1.702302,1.714802,1.693802
2020-11-15 22:22:43.164,1.587298,1.693802,1.713552,1.695427
2020-11-15 22:22:43.181,1.587048,1.698677,1.703927,1.694427
2020-11-15 22:22:43.198,1.590799,1.701302,1.706552,1.694052
2020-11-15 22:22:43.215,1.588173,1.710177,1.707677,1.693552
2020-11-15 22:22:43.232,1.587923,1.706427,1.711802,1.693052
2020-11-15 22:22:43.249,1.585798,1.704677,1.715177,1.694177
2020-11-15 22:22:43.266,1.586048,1.698302,1.714427,1.695927
2020-11-15 22:22:43.283,1.586798,1.695677,1.710302,1.694927
2020-11-15 22:22:43.300,1.589173,1.697927,1.700927,1.694552
2020-11-15 22:22:43.317,1.588298,1.701677,1.708177,1.693302
2020-11-15 22:22:43.334,1.589674,1.710302,1.709552,1.692552
2020-11-15 22:22:43.351,1.587048,1.705552,1.718927,1.693802
2020-11-15 22:22:43.368,1.585923,1.703177,1.715927,1.695052
2020-11-15 22:22:43.385,1.586673,1.696427,1.714677,1.695927
2020-11-15 22:22:43.403,1.586798,1.697427,1.712552,1.695052
2020-11-15 22:22:43.420,1.587423,1.698552,1.702927,1.694302
2020-11-15 22:22:43.437,1.589299,1.702177,1.706052,1.693427
2020-11-15 22:22:43.454,1.588048,1.711802,1.707677,1.693552
2020-11-15 22:22:43.471,1.587173,1.705802,1.719927,1.693177
2020-11-15 22:22:43.488,1.585423,1.704552,1.716302,1.694052
2020-11-15 22:22:43.505,1.586423,1.695927,1.714927,1.695177
2020-11-15 22:22:43.522,1.587048,1.697177,1.708802,1.695052
2020-11-15 22:22:43.539,1.590549,1.698677,1.703927,1.693802
2020-11-15 22:22:43.556,1.588673,1.702052,1.708052,1.692927
2020-11-15 22:22:43.573,1.587798,1.711052,1.710802,1.693802
2020-11-15 22:22:43.590,1.586548,1.705802,1.719427,1.693927
2020-11-15 22:22:43.607,1.586298,1.702177,1.715302,1.695552
2020-11-15 22:22:43.624,1.586673,1.693052,1.714177,1.694552
2020-11-15 22:22:43.641,1.587173,1.698802,1.706677,1.694927
2020-11-15 22:22:43.658,1.590549,1.700552,1.704927,1.694052
2020-11-15 22:22:43.675,1.587923,1.708802,1.708052,1.692552
2020-11-15 22:22:43.692,1.587048,1.706677,1.715177,1.693927
2020-11-15 22:22:43.709,1.585798,1.704927,1.716927,1.693552
2020-11-15 22:22:43.726,1.587173,1.700552,1.714677,1.694927
2020-11-15 22:22:43.743,1.586673,1.692802,1.711802,1.694677
2020-11-15 22:22:43.760,1.588798,1.698177,1.702427,1.694677
2020-11-15 22:22:43.777,1.589173,1.703177,1.707177,1.692677
2020-11-15 22:22:43.794,1.587923,1.711552,1.707802,1.693052
2020-11-15 22:22:43.811,1.587423,1.705052,1.716552,1.693677
2020-11-15 22:22:43.828,1.586548,1.703927,1.715052,1.694177
2020-11-15 22:22:43.845,1.586548,1.694677,1.714177,1.696052
2020-11-15 22:22:43.862,1.586298,1.697927,1.706302,1.694927
2020-11-15 22:22:43.879,1.591424,1.698802,1.706302,1.694427
2020-11-15 22:22:43.896,1.588423,1.703427,1.708177,1.691677
2020-11-15 22:22:43.913,1.588548,1.709552,1.711177,1.692677
2020-11-15 22:22:43.930,1.586048,1.705552,1.721428,1.693177
2020-11-15 22:22:43.947,1.586548,1.702677,1.714927,1.695927
2020-11-15 22:22:43.964,1.585923,1.693427,1.713802,1.694927
2020-11-15 22:22:43.981,1.588548,1.698552,1.704552,1.695052
2020-11-15 22:22:43.998,1.591674,1.700552,1.706552,1.693927
2020-11-15 22:22:44.015,1.588673,1.710302,1.708302,1.693427
2020-11-15 22:22:44.032,1.588048,1.706677,1.711802,1.693302
2020-11-15 22:22:44.049,1.586298,1.705427,1.721178,1.694302
2020-11-15 22:22:44.066,1.585673,1.699052,1.714677,1.695802
2020-11-15 22:22:44.083,1.587548,1.695052,1.710927,1.694927
2020-11-15 22:22:44.100,1.589424,1.698302,1.701927,1.694802
2020-11-15 22:22:44.117,1.589173,1.701052,1.707302,1.693052
2020-11-15 22:22:44.134,1.588048,1.710302,1.709052,1.692427
2020-11-15 22:22:44.151,1.587923,1.705427,1.718302,1.694302
2020-11-15 22:22:44.168,1.586673,1.702927,1.715927,1.694802
2020-11-15 22:22:44.185,1.587048,1.694177,1.714052,1.695802
2020-11-15 22:22:44.202,1.586548,1.697927,1.710177,1.694177
2020-11-15 22:22:44.220,1.588548,1.698177,1.703552,1.694552
2020-11-15 22:22:44.237,1.589799,1.702427,1.706677,1.693802
2020-11-15 22:22:44.254,1.587548,1.711427,1.707427,1.693302
2020-11-15 22:22:44.271,1.587673,1.706177,1.719677,1.693552
2020-11-15 22:22:44.288,1.585423,1.704552,1.715552,1.693802
2020-11-15 22:22:44.305,1.586923,1.696302,1.714427,1.696427
2020-11-15 22:22:44.322,1.586923,1.697802,1.709177,1.694677
2020-11-15 22:22:44.339,1.590049,1.698177,1.703927,1.694677
2020-11-15 22:22:44.356,1.589424,1.701927,1.708177,1.693302
2020-11-15 22:22:44.373,1.587673,1.706302,1.710177,1.693802
2020-11-15 22:22:44.390,1.587173,1.705427,1.719677,1.693552
2020-11-15 22:22:44.407,1.586173,1.702177,1.715427,1.695052
2020-11-15 22:22:44.424,1.587298,1.692552,1.714302,1.695052
2020-11-15 22:22:44.441,1.587673,1.698302,1.707052,1.694927
2020-11-15 22:22:44.458,1.590299,1.700302,1.707552,1.694677
2020-11-15 22:22:44.475,1.589048,1.708677,1.708427,1.693052
2020-11-15 22:22:44.492,1.588548,1.706302,1.714427,1.693552
2020-11-15 22:22:44.509,1.586923,1.704927,1.718802,1.694177
2020-11-15 22:22:44.526,1.587298,1.701302,1.714802,1.694677
2020-11-15 22:22:44.543,1.587548,1.692302,1.712677,1.693927
2020-11-15 22:22:44.560,1.588548,1.698177,1.702552,1.694927
2020-11-15 22:22:44.577,1.589674,1.703052,1.707177,1.693302
2020-11-15 22:22:44.594,1.588423,1.712052,1.707927,1.693552
2020-11-15 22:22:44.610,1.587673,1.705677,1.716052,1.693927
2020-11-15 22:22:44.627,1.586798,1.704427,1.716302,1.694677
2020-11-15 22:22:44.644,1.586423,1.695052,1.714177,1.696177
2020-11-15 22:22:44.661,1.585923,1.698052,1.711302,1.695177
2020-11-15 22:22:44.678,1.590924,1.699427,1.705802,1.694052
2020-11-15 22:22:44.695,1.589424,1.703302,1.708177,1.692427
2020-11-15 22:22:44.712,1.587548,1.710552,1.710927,1.693302
2020-11-15 22:22:44.729,1.587548,1.705177,1.721053,1.693427
2020-11-15 22:22:44.746,1.587048,1.702802,1.715177,1.694177
2020-11-15 22:22:44.763,1.586798,1.693677,1.714302,1.695052
2020-11-15 22:22:44.780,1.587798,1.698802,1.706427,1.694802
2020-11-15 22:22:44.798,1.591049,1.698427,1.706927,1.694052
2020-11-15 22:22:44.815,1.587923,1.704802,1.708427,1.692552
2020-11-15 22:22:44.832,1.588173,1.709302,1.711927,1.694427
2020-11-15 22:22:44.849,1.586673,1.705177,1.721803,1.693802
2020-11-15 22:22:44.866,1.586548,1.699552,1.715177,1.695802
2020-11-15 22:22:44.883,1.585923,1.694677,1.713302,1.694677
2020-11-15 22:22:44.900,1.587048,1.698302,1.704302,1.694552
2020-11-15 22:22:44.917,1.590674,1.701677,1.706927,1.693927
2020-11-15 22:22:44.934,1.587798,1.709927,1.707927,1.693302
2020-11-15 22:22:44.951,1.587298,1.705927,1.718302,1.693177
2020-11-15 22:22:44.968,1.586173,1.705052,1.715302,1.693927
2020-11-15 22:22:44.985,1.586673,1.698552,1.714802,1.696052
2020-11-15 22:22:45.002,1.588048,1.695927,1.710302,1.694927
2020-11-15 22:22:45.019,1.590424,1.698802,1.701302,1.694302
2020-11-15 22:22:45.036,1.588923,1.698427,1.707177,1.693927
2020-11-15 22:22:45.054,1.588548,1.707177,1.708802,1.692927
2020-11-15 22:22:45.071,1.587423,1.705427,1.713427,1.692802
2020-11-15 22:22:45.088,1.585423,1.704802,1.721053,1.694927
2020-11-15 22:22:45.105,1.586048,1.697177,1.714052,1.695802
2020-11-15 22:22:45.122,1.587173,1.697552,1.712427,1.695177
2020-11-15 22:22:45.139,1.587798,1.698802,1.702802,1.694552
2020-11-15 22:22:45.156,1.589048,1.701802,1.706552,1.693177
2020-11-15 22:22:45.173,1.586798,1.711552,1.707427,1.693552
2020-11-15 22:22:45.190,1.587548,1.705927,1.719302,1.693427
2020-11-15 22:22:45.207,1.586423,1.704177,1.715927,1.693927
2020-11-15 22:22:45.224,1.587298,1.695677,1.714052,1.695302
2020-11-15 22:22:45.241,1.586798,1.697177,1.708177,1.694427
2020-11-15 22:22:45.258,1.590424,1.698802,1.704302,1.694052
2020-11-15 22:22:45.275,1.588298,1.702552,1.708052,1.692677
2020-11-15 22:22:45.292,1.588173,1.705927,1.710552,1.694052
2020-11-15 22:22:45.309,1.586923,1.705177,1.719552,1.693552
2020-11-15 22:22:45.326,1.586173,1.702177,1.716052,1.695802
2020-11-15 22:22:45.343,1.586798,1.693302,1.713427,1.694927
2020-11-15 22:22:45.360,1.586423,1.698302,1.706802,1.694927
2020-11-15 22:22:45.377,1.589799,1.700052,1.707302,1.694302
2020-11-15 22:22:45.394,1.588173,1.709052,1.708552,1.692427
2020-11-15 22:22:45.411,1.587423,1.706302,1.715552,1.693552
2020-11-15 22:22:45.428,1.586548,1.705177,1.717552,1.693802
2020-11-15 22:22:45.445,1.585798,1.700427,1.714552,1.695427
2020-11-15 22:22:45.462,1.587048,1.692302,1.712052,1.694427
2020-11-15 22:22:45.479,1.589173,1.697802,1.702552,1.694927
2020-11-15 22:22:45.496,1.589299,1.703177,1.707177,1.693177
2020-11-15 22:22:45.513,1.587798,1.711177,1.708302,1.693927
2020-11-15 22:22:45.530,1.587923,1.706052,1.715927,1.693927
2020-11-15 22:22:45.547,1.585798,1.703802,1.715677,1.695052
2020-11-15 22:22:45.564,1.587173,1.695427,1.713677,1.696177
2020-11-15 22:22:45.581,1.586298,1.697677,1.707052,1.694677
2020-11-15 22:22:45.598,1.590549,1.698802,1.706552,1.694552
2020-11-15 22:22:45.615,1.588423,1.704927,1.708427,1.693427
2020-11-15 22:22:45.632,1.588423,1.709677,1.711177,1.693552
2020-11-15 22:22:45.649,1.587173,1.705052,1.721678,1.693677
2020-11-15 22:22:45.666,1.586423,1.702927,1.715302,1.694052
2020-11-15 22:22:45.683,1.586548,1.693552,1.714427,1.695302
2020-11-15 22:22:45.700,1.587673,1.699052,1.705052,1.695052
2020-11-15 22:22:45.716,1.590299,1.701302,1.706677,1.693677
2020-11-15 22:22:45.733,1.587673,1.709802,1.707927,1.693302
2020-11-15 22:22:45.750,1.588173,1.706677,1.710802,1.693677
2020-11-15 22:22:45.767,1.586798,1.705927,1.715552,1.693802
2020-11-15 22:22:45.784,1.587048,1.699802,1.714802,1.696177
2020-11-15 22:22:45.801,1.586673,1.694677,1.711677,1.695177
2020-11-15 22:22:45.818,1.589549,1.698677,1.701552,1.694927
2020-11-15 22:22:45.835,1.588798,1.701302,1.707677,1.693552
2020-11-15 22:22:45.852,1.588923,1.709802,1.709302,1.693302
2020-11-15 22:22:45.871,1.587798,1.707052,1.712927,1.693552
2020-11-15 22:22:45.888,1.586048,1.705427,1.720803,1.694427
2020-11-15 22:22:45.905,1.586298,1.698177,1.714927,1.696302
2020-11-15 22:22:45.922,1.586298,1.697302,1.713177,1.695052
2020-11-15 22:22:45.939,1.588423,1.698927,1.704177,1.695177
2020-11-15 22:22:45.956,1.590049,1.702677,1.706677,1.693552
2020-11-15 22:22:45.973,1.588173,1.711177,1.708052,1.693427
2020-11-15 22:22:45.990,1.586923,1.705927,1.713427,1.693802
2020-11-15 22:22:46.007,1.586298,1.705302,1.716302,1.695052
2020-11-15 22:22:46.024,1.586423,1.696302,1.713802,1.695552
2020-11-15 22:22:46.041,1.587298,1.697802,1.709427,1.694802
2020-11-15 22:22:46.058,1.590174,1.698552,1.703427,1.694177
2020-11-15 22:22:46.075,1.589048,1.701927,1.708052,1.693302
2020-11-15 22:22:46.092,1.588048,1.711302,1.710927,1.694302
2020-11-15 22:22:46.109,1.586423,1.706052,1.720302,1.694802
2020-11-15 22:22:46.126,1.585548,1.702177,1.715927,1.696052
2020-11-15 22:22:46.143,1.585673,1.693302,1.714052,1.694677
2020-11-15 22:22:46.160,1.586798,1.698802,1.708052,1.695052
2020-11-15 22:22:46.177,1.589674,1.699677,1.704427,1.694802
2020-11-15 22:22:46.194,1.588923,1.709052,1.707302,1.692552
2020-11-15 22:22:46.211,1.587673,1.706302,1.709427,1.694177
2020-11-15 22:22:46.228,1.587173,1.705802,1.718927,1.693927
2020-11-15 22:22:46.244,1.586923,1.701802,1.715052,1.695677
2020-11-15 22:22:46.261,1.586548,1.692677,1.712427,1.694552
2020-11-15 22:22:46.278,1.588548,1.698427,1.703302,1.694427
2020-11-15 22:22:46.295,1.589549,1.699427,1.706677,1.693927
2020-11-15 22:22:46.312,1.588923,1.708552,1.708677,1.693927
2020-11-15 22:22:46.329,1.587673,1.705802,1.715552,1.693802
2020-11-15 22:22:46.346,1.586548,1.704052,1.716927,1.694802
2020-11-15 22:22:46.363,1.585673,1.695552,1.714302,1.696427
2020-11-15 22:22:46.380,1.586298,1.698302,1.711802,1.695052
2020-11-15 22:22:46.397,1.588923,1.698927,1.701677,1.694427
2020-11-15 22:22:46.414,1.588298,1.703677,1.708552,1.693802
2020-11-15 22:22:46.431,1.588048,1.711177,1.711802,1.693302
2020-11-15 22:22:46.448,1.586423,1.705552,1.720803,1.693927
2020-11-15 22:22:46.465,1.586673,1.703427,1.715052,1.694552
2020-11-15 22:22:46.482,1.587048,1.694302,1.714802,1.695177
2020-11-15 22:22:46.499,1.587798,1.698427,1.706552,1.695302
2020-11-15 22:22:46.516,1.590049,1.700552,1.706927,1.694177
2020-11-15 22:22:46.533,1.588673,1.710302,1.707677,1.693427
2020-11-15 22:22:46.550,1.588173,1.706552,1.711177,1.693677
2020-11-15 22:22:46.567,1.586673,1.705177,1.720928,1.694802
2020-11-15 22:22:46.584,1.586423,1.699927,1.715052,1.695427
2020-11-15 22:22:46.601,1.585798,1.694427,1.711427,1.694677
2020-11-15 22:22:46.618,1.590049,1.699427,1.702177,1.695177
2020-11-15 22:22:46.635,1.588673,1.701302,1.707802,1.693802
2020-11-15 22:22:46.652,1.588423,1.710177,1.709052,1.693302
2020-11-15 22:22:46.669,1.587798,1.705927,1.717677,1.693052
2020-11-15 22:22:46.686,1.586298,1.705177,1.721428,1.693552
2020-11-15 22:22:46.704,1.587423,1.702177,1.715427,1.695927
2020-11-15 22:22:46.721,1.586548,1.695802,1.713427,1.694927
2020-11-15 22:22:46.738,1.586923,1.699302,1.703427,1.694802
2020-11-15 22:22:46.755,1.590674,1.701802,1.706677,1.693552
2020-11-15 22:22:46.772,1.587423,1.711177,1.707552,1.693927
2020-11-15 22:22:46.789,1.587048,1.706302,1.712552,1.693802
2020-11-15 22:22:46.806,1.585173,1.706052,1.715927,1.694302
2020-11-15 22:22:46.823,1.586798,1.697802,1.714552,1.696177
2020-11-15 22:22:46.840,1.587173,1.697052,1.710052,1.694802
2020-11-15 22:22:46.857,1.589799,1.699177,1.702177,1.695052
2020-11-15 22:22:46.874,1.588423,1.702177,1.708302,1.693427
2020-11-15 22:22:46.891,1.587923,1.711177,1.709927,1.693302
2020-11-15 22:22:46.908,1.586548,1.705802,1.720052,1.694177
2020-11-15 22:22:46.925,1.585423,1.702927,1.715802,1.695677
2020-11-15 22:22:46.942,1.587173,1.693927,1.714427,1.695552
2020-11-15 22:22:46.959,1.587923,1.698677,1.708677,1.695302
2020-11-15 22:22:46.976,1.590424,1.699427,1.703302,1.694552
2020-11-15 22:22:46.993,1.588548,1.708302,1.707927,1.693302
2020-11-15 22:22:47.010,1.588173,1.706677,1.714177,1.693927
2020-11-15 22:22:47.027,1.586923,1.706427,1.720428,1.693802
2020-11-15 22:22:47.044,1.586548,1.701427,1.714302,1.694677
2020-11-15 22:22:47.061,1.586673,1.692302,1.712677,1.694552
2020-11-15 22:22:47.078,1.588673,1.698677,1.703677,1.695302
2020-11-15 22:22:47.096,1.590924,1.699677,1.704677,1.693802
2020-11-15 22:22:47.113,1.587548,1.708927,1.707427,1.692802
2020-11-15 22:22:47.130,1.588673,1.706302,1.715427,1.694052
2020-11-15 22:22:47.147,1.586548,1.705927,1.718427,1.693927
2020-11-15 22:22:47.164,1.586923,1.701052,1.714927,1.695677
2020-11-15 22:22:47.181,1.586798,1.693177,1.712802,1.694927
2020-11-15 22:22:47.198,1.589424,1.698427,1.702927,1.694802
2020-11-15 22:22:47.215,1.588923,1.700052,1.708052,1.693677
2020-11-15 22:22:47.232,1.589173,1.711427,1.708302,1.694052
2020-11-15 22:22:47.249,1.587673,1.705302,1.716427,1.694427
2020-11-15 22:22:47.266,1.586298,1.704177,1.715927,1.694802
2020-11-15 22:22:47.283,1.586423,1.695677,1.715052,1.696302
2020-11-15 22:22:47.300,1.586173,1.698177,1.711677,1.695177
2020-11-15 22:22:47.316,1.589173,1.699302,1.705802,1.695177
2020-11-15 22:22:47.333,1.589424,1.704427,1.708177,1.693427
2020-11-15 22:22:47.350,1.588923,1.710552,1.711677,1.693677
2020-11-15 22:22:47.367,1.587298,1.705302,1.721178,1.693677
2020-11-15 22:22:47.384,1.587048,1.703052,1.715302,1.694177
2020-11-15 22:22:47.401,1.587048,1.694177,1.714802,1.695427
2020-11-15 22:22:47.418,1.587548,1.697302,1.705302,1.695552
2020-11-15 22:22:47.435,1.591424,1.701177,1.707177,1.694302
2020-11-15 22:22:47.452,1.589173,1.710302,1.708177,1.693052
2020-11-15 22:22:47.469,1.588298,1.707302,1.711802,1.694052
2020-11-15 22:22:47.486,1.587548,1.705177,1.721178,1.695177
2020-11-15 22:22:47.503,1.586798,1.700052,1.714677,1.694552
2020-11-15 22:22:47.521,1.586673,1.694177,1.714302,1.695927
2020-11-15 22:22:47.539,1.586048,1.698552,1.705177,1.695552
2020-11-15 22:22:47.556,1.591299,1.699302,1.707427,1.694552
2020-11-15 22:22:47.573,1.588923,1.706677,1.709052,1.693677
2020-11-15 22:22:47.590,1.587673,1.707427,1.712677,1.693552
2020-11-15 22:22:47.607,1.586923,1.705802,1.721428,1.693177
2020-11-15 22:22:47.623,1.586923,1.702177,1.714677,1.696427
2020-11-15 22:22:47.640,1.587048,1.697052,1.713427,1.694927
2020-11-15 22:22:47.657,1.587298,1.698802,1.703802,1.695177
2020-11-15 22:22:47.674,1.590174,1.702552,1.706927,1.694052
2020-11-15 22:22:47.691,1.588173,1.710802,1.708177,1.693927
2020-11-15 22:22:47.708,1.587423,1.706052,1.713052,1.694177
2020-11-15 22:22:47.725,1.586298,1.705927,1.716052,1.694552
2020-11-15 22:22:47.742,1.587298,1.696802,1.715052,1.696552
2020-11-15 22:22:47.759,1.586923,1.697802,1.709927,1.694802
2020-11-15 22:22:47.776,1.590049,1.698427,1.703427,1.695302
2020-11-15 22:22:47.793,1.588548,1.702052,1.708052,1.694052
2020-11-15 22:22:47.810,1.589048,1.711427,1.710802,1.693302
2020-11-15 22:22:47.827,1.586923,1.705177,1.720052,1.694302
2020-11-15 22:22:47.844,1.586548,1.702052,1.715552,1.695927
2020-11-15 22:22:47.861,1.586298,1.692927,1.714177,1.695552
2020-11-15 22:22:47.878,1.588048,1.698302,1.707802,1.695177
2020-11-15 22:22:47.895,1.590549,1.700052,1.703802,1.694927
2020-11-15 22:22:47.912,1.589173,1.708677,1.707552,1.693052
2020-11-15 22:22:47.929,1.588173,1.706802,1.714552,1.693927
2020-11-15 22:22:47.946,1.587173,1.705802,1.720177,1.694677
2020-11-15 22:22:47.963,1.586048,1.702052,1.714802,1.696052
2020-11-15 22:22:47.980,1.587548,1.693677,1.712677,1.695177
2020-11-15 22:22:47.997,1.588673,1.699302,1.703552,1.694302
2020-11-15 22:22:48.014,1.589799,1.700427,1.707802,1.693927
2020-11-15 22:22:48.031,1.588548,1.708677,1.708677,1.692677
2020-11-15 22:22:48.048,1.588298,1.705677,1.715552,1.693677
2020-11-15 22:22:48.065,1.586798,1.704677,1.717177,1.694302
2020-11-15 22:22:48.082,1.585423,1.695677,1.715052,1.696177
2020-11-15 22:22:48.099,1.587298,1.698427,1.711302,1.695427
2020-11-15 22:22:48.116,1.589549,1.699677,1.702552,1.694927
2020-11-15 22:22:48.133,1.589924,1.703927,1.707052,1.693552
2020-11-15 22:22:48.150,1.588548,1.711427,1.711302,1.693927
2020-11-15 22:22:48.167,1.587173,1.705552,1.720177,1.693927
2020-11-15 22:22:48.184,1.586673,1.704052,1.715552,1.694927
2020-11-15 22:22:48.201,1.587173,1.695302,1.714802,1.696177
2020-11-15 22:22:48.218,1.587673,1.697802,1.706927,1.694802
2020-11-15 22:22:48.235,1.590674,1.698802,1.706927,1.694802
2020-11-15 22:22:48.252,1.588548,1.704052,1.708552,1.693302
2020-11-15 22:22:48.269,1.589048,1.706927,1.711927,1.693802
2020-11-15 22:22:48.286,1.587298,1.705552,1.721678,1.694177
2020-11-15 22:22:48.303,1.586173,1.700677,1.715052,1.697177
2020-11-15 22:22:48.320,1.586923,1.694677,1.714177,1.696052
2020-11-15 22:22:48.338,1.586798,1.695302,1.711177,1.694927
2020-11-15 22:22:48.356,1.590424,1.699177,1.701927,1.695177
2020-11-15 22:22:48.373,1.590299,1.702302,1.708177,1.693302
2020-11-15 22:22:48.390,1.588548,1.710927,1.709552,1.693302
2020-11-15 22:22:48.407,1.588298,1.706052,1.718552,1.693302
2020-11-15 22:22:48.424,1.585548,1.705052,1.716052,1.695427
2020-11-15 22:22:48.441,1.586423,1.694302,1.714427,1.696177
2020-11-15 22:22:48.458,1.588423,1.698427,1.710052,1.694927
2020-11-15 22:22:48.475,1.590299,1.699177,1.702677,1.695177
2020-11-15 22:22:48.492,1.589924,1.707802,1.708052,1.693302
2020-11-15 22:22:48.509,1.588798,1.707177,1.709677,1.694052
2020-11-15 22:22:48.526,1.586548,1.705677,1.719427,1.694177
2020-11-15 22:22:48.543,1.586048,1.702177,1.715177,1.696052
2020-11-15 22:22:48.560,1.586673,1.693427,1.712677,1.695677
2020-11-15 22:22:48.577,1.588673,1.698177,1.703927,1.694552
2020-11-15 22:22:48.594,1.590549,1.699802,1.707427,1.694302
2020-11-15 22:22:48.611,1.589048,1.708802,1.708677,1.692927
2020-11-15 22:22:48.628,1.587298,1.705927,1.714052,1.694427
2020-11-15 22:22:48.645,1.586298,1.704927,1.719052,1.694802
2020-11-15 22:22:48.662,1.586923,1.696052,1.715177,1.696052
2020-11-15 22:22:48.679,1.587173,1.698427,1.712177,1.694927
