Datetime,chan0,chan1,chan2,chan3
2020-11-15 22:32:15.255,1.598174,1.712052,1.725303,1.706677
2020-11-15 22:32:15.272,1.597799,1.706927,1.722678,1.705802
2020-11-15 22:32:15.289,1.598799,1.709052,1.713552,1.705677
2020-11-15 22:32:15.306,1.600299,1.712677,1.717052,1.704927
2020-11-15 22:32:15.323,1.597799,1.722053,1.717927,1.704302
2020-11-15 22:32:15.340,1.598299,1.716677,1.729178,1.704677
2020-11-15 22:32:15.357,1.598049,1.715427,1.726178,1.705177
2020-11-15 22:32:15.374,1.597549,1.706427,1.724303,1.706677
2020-11-15 22:32:15.391,1.598549,1.707802,1.719302,1.705302
2020-11-15 22:32:15.408,1.600299,1.708802,1.713177,1.704927
2020-11-15 22:32:15.425,1.598924,1.711927,1.718177,1.703552
2020-11-15 22:32:15.442,1.598799,1.721053,1.720803,1.703927
2020-11-15 22:32:15.459,1.597799,1.715802,1.730178,1.705052
2020-11-15 22:32:15.476,1.596799,1.712302,1.725303,1.706302
2020-11-15 22:32:15.493,1.597799,1.703677,1.724178,1.705927
2020-11-15 22:32:15.510,1.597674,1.708802,1.716052,1.705677
2020-11-15 22:32:15.527,1.601049,1.710052,1.714302,1.704677
2020-11-15 22:32:15.545,1.599674,1.713927,1.716802,1.704177
2020-11-15 22:32:15.562,1.598049,1.721178,1.721428,1.704927
2020-11-15 22:32:15.579,1.598174,1.715677,1.731303,1.704802
2020-11-15 22:32:15.596,1.597299,1.713427,1.725053,1.705302
2020-11-15 22:32:15.613,1.596674,1.703927,1.724303,1.706552
2020-11-15 22:32:15.630,1.598174,1.707552,1.715927,1.704927
2020-11-15 22:32:15.647,1.601549,1.708427,1.717427,1.704427
2020-11-15 22:32:15.664,1.599549,1.720302,1.717552,1.704052
2020-11-15 22:32:15.681,1.598924,1.716802,1.721803,1.704427
2020-11-15 22:32:15.698,1.598674,1.715427,1.731678,1.705052
2020-11-15 22:32:15.715,1.598049,1.709302,1.725053,1.706677
2020-11-15 22:32:15.732,1.597174,1.705427,1.722678,1.706052
2020-11-15 22:32:15.749,1.598049,1.708677,1.713552,1.705552
2020-11-15 22:32:15.766,1.600174,1.711927,1.717802,1.704302
2020-11-15 22:32:15.783,1.599549,1.721178,1.719177,1.704302
2020-11-15 22:32:15.800,1.598049,1.716052,1.729428,1.704802
2020-11-15 22:32:15.817,1.597924,1.715052,1.725803,1.705177
2020-11-15 22:32:15.834,1.597549,1.707177,1.724803,1.706177
2020-11-15 22:32:15.851,1.598299,1.706802,1.720177,1.706177
2020-11-15 22:32:15.868,1.600549,1.709302,1.712427,1.705052
2020-11-15 22:32:15.885,1.599424,1.716677,1.717552,1.703927
2020-11-15 22:32:15.902,1.598174,1.717427,1.720052,1.704927
2020-11-15 22:32:15.919,1.598549,1.715677,1.728678,1.704427
2020-11-15 22:32:15.936,1.596924,1.712177,1.725178,1.706052
2020-11-15 22:32:15.953,1.597299,1.703052,1.722553,1.706052
2020-11-15 22:32:15.970,1.599424,1.708677,1.713177,1.705552
2020-11-15 22:32:15.987,1.600674,1.709552,1.717177,1.704927
2020-11-15 22:32:16.004,1.598924,1.718427,1.718927,1.703677
2020-11-15 22:32:16.021,1.598424,1.716052,1.724178,1.704052
2020-11-15 22:32:16.038,1.598049,1.715427,1.728678,1.705677
2020-11-15 22:32:16.055,1.597299,1.706677,1.724428,1.707302
2020-11-15 22:32:16.072,1.598299,1.708052,1.722178,1.705677
2020-11-15 22:32:16.089,1.598924,1.709052,1.711802,1.705302
2020-11-15 22:32:16.106,1.600549,1.713052,1.716427,1.704802
2020-11-15 22:32:16.123,1.598674,1.722678,1.717802,1.704552
2020-11-15 22:32:16.140,1.597174,1.715677,1.730553,1.705052
2020-11-15 22:32:16.157,1.597924,1.714302,1.725428,1.705052
2020-11-15 22:32:16.174,1.598174,1.705302,1.724678,1.706177
2020-11-15 22:32:16.191,1.598924,1.707802,1.717177,1.705302
2020-11-15 22:32:16.208,1.600674,1.708677,1.715927,1.705177
2020-11-15 22:32:16.225,1.599424,1.713677,1.718052,1.703927
2020-11-15 22:32:16.242,1.598299,1.716302,1.721178,1.704552
2020-11-15 22:32:16.259,1.598174,1.714427,1.730928,1.705177
2020-11-15 22:32:16.276,1.598424,1.710427,1.725053,1.706302
2020-11-15 22:32:16.293,1.597549,1.703552,1.723803,1.706052
2020-11-15 22:32:16.310,1.598174,1.709052,1.714927,1.705302
2020-11-15 22:32:16.327,1.601799,1.711302,1.716302,1.704802
2020-11-15 22:32:16.344,1.597674,1.720177,1.718427,1.703927
2020-11-15 22:32:16.361,1.598049,1.717552,1.722053,1.705052
2020-11-15 22:32:16.379,1.598424,1.715927,1.728928,1.704802
2020-11-15 22:32:16.396,1.598424,1.712302,1.725428,1.705427
2020-11-15 22:32:16.413,1.597049,1.703427,1.723303,1.706177
2020-11-15 22:32:16.430,1.598674,1.708552,1.714052,1.705552
2020-11-15 22:32:16.447,1.600924,1.709302,1.717802,1.705552
2020-11-15 22:32:16.464,1.598299,1.717427,1.719052,1.703552
2020-11-15 22:32:16.481,1.599424,1.716302,1.723553,1.704177
2020-11-15 22:32:16.498,1.598424,1.715302,1.730053,1.705177
2020-11-15 22:32:16.515,1.598049,1.711927,1.724803,1.706677
2020-11-15 22:32:16.532,1.597299,1.707677,1.721553,1.706052
2020-11-15 22:32:16.549,1.599924,1.708927,1.713177,1.706052
2020-11-15 22:32:16.566,1.600174,1.712052,1.717052,1.704052
2020-11-15 22:32:16.583,1.599174,1.722678,1.717302,1.704427
2020-11-15 22:32:16.600,1.598424,1.715552,1.724553,1.704677
2020-11-15 22:32:16.617,1.597924,1.714552,1.725678,1.705552
2020-11-15 22:32:16.634,1.597924,1.705302,1.724428,1.706552
2020-11-15 22:32:16.651,1.598174,1.707052,1.717927,1.705427
2020-11-15 22:32:16.668,1.601299,1.708427,1.714552,1.705302
2020-11-15 22:32:16.685,1.599424,1.718927,1.718802,1.704677
2020-11-15 22:32:16.702,1.598674,1.716427,1.721178,1.705052
2020-11-15 22:32:16.719,1.598799,1.715427,1.730553,1.704677
2020-11-15 22:32:16.736,1.596549,1.711802,1.725303,1.706927
2020-11-15 22:32:16.753,1.597674,1.703052,1.723678,1.705302
2020-11-15 22:32:16.770,1.598174,1.709427,1.716177,1.705552
2020-11-15 22:32:16.787,1.599049,1.710802,1.717552,1.705427
2020-11-15 22:32:16.804,1.599174,1.719552,1.718802,1.704302
2020-11-15 22:32:16.821,1.598299,1.716802,1.726678,1.704302
2020-11-15 22:32:16.838,1.597549,1.715552,1.726178,1.704302
2020-11-15 22:32:16.855,1.598424,1.709177,1.724803,1.706802
2020-11-15 22:32:16.872,1.597299,1.707677,1.720803,1.705927
2020-11-15 22:32:16.889,1.599924,1.709302,1.712052,1.705552
2020-11-15 22:32:16.906,1.599049,1.714427,1.716802,1.704552
2020-11-15 22:32:16.923,1.598674,1.720302,1.718677,1.704552
2020-11-15 22:32:16.940,1.598049,1.715552,1.727053,1.704927
2020-11-15 22:32:16.956,1.597924,1.713177,1.724928,1.705552
2020-11-15 22:32:16.973,1.597424,1.703802,1.723928,1.706302
2020-11-15 22:32:16.990,1.598924,1.707802,1.714802,1.705177
2020-11-15 22:32:17.007,1.600924,1.708927,1.717052,1.705177
2020-11-15 22:32:17.025,1.598549,1.715927,1.717302,1.704427
2020-11-15 22:32:17.042,1.598299,1.717927,1.721553,1.704802
2020-11-15 22:32:17.059,1.597549,1.715427,1.731928,1.704927
2020-11-15 22:32:17.076,1.598799,1.712552,1.724928,1.705802
2020-11-15 22:32:17.093,1.597799,1.703302,1.722803,1.706052
2020-11-15 22:32:17.110,1.597924,1.707677,1.714177,1.705302
2020-11-15 22:32:17.127,1.600549,1.708802,1.717427,1.704802
2020-11-15 22:32:17.144,1.598924,1.721428,1.718052,1.704927
2020-11-15 22:32:17.161,1.597924,1.716177,1.723428,1.704802
2020-11-15 22:32:17.178,1.597049,1.715677,1.729303,1.704052
2020-11-15 22:32:17.196,1.597674,1.712177,1.726303,1.706927
2020-11-15 22:32:17.213,1.597799,1.702677,1.723928,1.706427
2020-11-15 22:32:17.230,1.597924,1.708427,1.716552,1.705927
2020-11-15 22:32:17.247,1.600799,1.710427,1.714302,1.704927
2020-11-15 22:32:17.264,1.598549,1.719677,1.717302,1.704177
2020-11-15 22:32:17.281,1.598174,1.716677,1.725678,1.704177
2020-11-15 22:32:17.298,1.598424,1.715427,1.727928,1.704927
2020-11-15 22:32:17.315,1.598299,1.710302,1.724803,1.706302
2020-11-15 22:32:17.332,1.597424,1.703427,1.721303,1.705052
2020-11-15 22:32:17.349,1.600049,1.708427,1.712177,1.705177
2020-11-15 22:32:17.366,1.599424,1.710302,1.717677,1.704427
2020-11-15 22:32:17.383,1.598424,1.721178,1.718802,1.704552
2020-11-15 22:32:17.400,1.598299,1.716052,1.727428,1.705552
2020-11-15 22:32:17.417,1.597424,1.713302,1.725303,1.705302
2020-11-15 22:32:17.434,1.598049,1.705177,1.724303,1.706927
2020-11-15 22:32:17.451,1.598424,1.708427,1.720678,1.705052
2020-11-15 22:32:17.468,1.600299,1.709677,1.711677,1.706052
2020-11-15 22:32:17.485,1.598674,1.715552,1.717802,1.704427
2020-11-15 22:32:17.502,1.599049,1.719177,1.721553,1.704802
2020-11-15 22:32:17.519,1.597674,1.715677,1.731803,1.704677
2020-11-15 22:32:17.536,1.597049,1.712302,1.725178,1.705802
2020-11-15 22:32:17.553,1.597924,1.703552,1.723428,1.706177
2020-11-15 22:32:17.570,1.598299,1.707927,1.714052,1.705427
2020-11-15 22:32:17.587,1.601674,1.711677,1.716927,1.705177
2020-11-15 22:32:17.604,1.599299,1.721428,1.718052,1.703927
2020-11-15 22:32:17.621,1.598049,1.716052,1.722553,1.704677
2020-11-15 22:32:17.638,1.597424,1.716052,1.730553,1.704802
2020-11-15 22:32:17.655,1.597549,1.708552,1.723428,1.707427
2020-11-15 22:32:17.672,1.597299,1.706677,1.722178,1.705927
2020-11-15 22:32:17.689,1.600174,1.709052,1.711927,1.704927
2020-11-15 22:32:17.706,1.598799,1.712302,1.718177,1.704177
2020-11-15 22:32:17.723,1.598799,1.721928,1.720052,1.704302
2020-11-15 22:32:17.740,1.597799,1.716052,1.729803,1.704177
2020-11-15 22:32:17.757,1.597799,1.714427,1.725928,1.704802
2020-11-15 22:32:17.774,1.597049,1.703177,1.723928,1.706427
2020-11-15 22:32:17.791,1.598049,1.708552,1.718302,1.705552
2020-11-15 22:32:17.808,1.600174,1.709552,1.713552,1.704927
2020-11-15 22:32:17.825,1.598674,1.717927,1.717677,1.704177
2020-11-15 22:32:17.842,1.598049,1.716677,1.720428,1.704802
2020-11-15 22:32:17.859,1.597424,1.715552,1.729678,1.704677
2020-11-15 22:32:17.876,1.597799,1.711927,1.724928,1.706052
2020-11-15 22:32:17.893,1.597549,1.702677,1.721928,1.705302
2020-11-15 22:32:17.910,1.599174,1.707927,1.713302,1.705177
2020-11-15 22:32:17.926,1.600174,1.710052,1.717552,1.703927
2020-11-15 22:32:17.944,1.598549,1.718927,1.718177,1.705427
2020-11-15 22:32:17.960,1.598299,1.716552,1.725803,1.704302
2020-11-15 22:32:17.977,1.597174,1.714552,1.727428,1.705427
2020-11-15 22:32:17.994,1.598049,1.704802,1.723928,1.706927
2020-11-15 22:32:18.011,1.597299,1.703302,1.723803,1.706052
2020-11-15 22:32:18.030,1.597924,1.708927,1.714677,1.705677
2020-11-15 22:32:18.047,1.600674,1.710802,1.716677,1.704927
2020-11-15 22:32:18.064,1.598174,1.720428,1.717427,1.704552
2020-11-15 22:32:18.081,1.598924,1.716552,1.727803,1.704302
2020-11-15 22:32:18.098,1.597799,1.715177,1.725303,1.704677
2020-11-15 22:32:18.115,1.597674,1.708552,1.724303,1.706927
2020-11-15 22:32:18.132,1.597299,1.705552,1.720803,1.705552
2020-11-15 22:32:18.149,1.600924,1.708427,1.711302,1.705552
2020-11-15 22:32:18.166,1.598924,1.715302,1.718052,1.704427
2020-11-15 22:32:18.183,1.598674,1.719302,1.718677,1.704677
2020-11-15 22:32:18.200,1.597674,1.716052,1.728053,1.704802
2020-11-15 22:32:18.216,1.596674,1.712802,1.725678,1.706427
2020-11-15 22:32:18.233,1.597299,1.703927,1.723928,1.706302
2020-11-15 22:32:18.250,1.598424,1.708552,1.719427,1.705677
2020-11-15 22:32:18.267,1.600674,1.709177,1.716677,1.704927
2020-11-15 22:32:18.284,1.598299,1.716302,1.718552,1.704177
2020-11-15 22:32:18.301,1.598924,1.716927,1.722803,1.704552
2020-11-15 22:32:18.318,1.598549,1.715052,1.730428,1.704302
2020-11-15 22:32:18.335,1.598174,1.711552,1.724928,1.706677
2020-11-15 22:32:18.352,1.596799,1.706427,1.722178,1.705677
2020-11-15 22:32:18.369,1.598174,1.708927,1.712927,1.706052
2020-11-15 22:32:18.386,1.599674,1.711927,1.716927,1.704802
2020-11-15 22:32:18.403,1.598674,1.721803,1.717927,1.704677
2020-11-15 22:32:18.420,1.597674,1.715927,1.723803,1.705177
2020-11-15 22:32:18.437,1.597674,1.715177,1.727678,1.704677
2020-11-15 22:32:18.454,1.596924,1.705677,1.724428,1.707052
2020-11-15 22:32:18.471,1.597174,1.708302,1.718552,1.705802
2020-11-15 22:32:18.488,1.600549,1.708927,1.713927,1.704677
2020-11-15 22:32:18.505,1.599549,1.712302,1.718552,1.703927
2020-11-15 22:32:18.522,1.598424,1.721678,1.720553,1.704927
2020-11-15 22:32:18.539,1.598174,1.716677,1.729303,1.704677
2020-11-15 22:32:18.556,1.598674,1.711552,1.725678,1.706302
2020-11-15 22:32:18.573,1.597049,1.702927,1.724303,1.706052
2020-11-15 22:32:18.590,1.597799,1.709302,1.716552,1.705302
2020-11-15 22:32:18.607,1.599674,1.710177,1.715177,1.705427
2020-11-15 22:32:18.624,1.599549,1.719927,1.718427,1.704177
2020-11-15 22:32:18.641,1.598424,1.716927,1.725803,1.704802
2020-11-15 22:32:18.658,1.597049,1.715302,1.726553,1.704677
2020-11-15 22:32:18.675,1.597674,1.710177,1.724803,1.705927
2020-11-15 22:32:18.692,1.597799,1.703927,1.722053,1.705552
2020-11-15 22:32:18.709,1.599799,1.708302,1.711427,1.705927
2020-11-15 22:32:18.726,1.600049,1.714052,1.717552,1.704677
2020-11-15 22:32:18.743,1.598924,1.721303,1.718802,1.704927
2020-11-15 22:32:18.760,1.598049,1.715302,1.727428,1.704802
2020-11-15 22:32:18.777,1.597924,1.713802,1.725178,1.706302
2020-11-15 22:32:18.794,1.597549,1.704677,1.724803,1.706802
2020-11-15 22:32:18.811,1.597549,1.707677,1.715302,1.706052
2020-11-15 22:32:18.828,1.599674,1.709052,1.717052,1.704677
2020-11-15 22:32:18.846,1.599049,1.712052,1.718427,1.704677
2020-11-15 22:32:18.863,1.598174,1.721428,1.719177,1.704677
2020-11-15 22:32:18.880,1.596674,1.716302,1.728803,1.704677
2020-11-15 22:32:18.897,1.597549,1.715552,1.724803,1.704552
2020-11-15 22:32:18.914,1.597674,1.707177,1.724178,1.706177
2020-11-15 22:32:18.931,1.597174,1.708052,1.719802,1.706427
2020-11-15 22:32:18.948,1.599299,1.709552,1.712552,1.705427
2020-11-15 22:32:18.965,1.598799,1.717427,1.717927,1.703677
2020-11-15 22:32:18.982,1.598799,1.716927,1.719927,1.705427
2020-11-15 22:32:18.999,1.597799,1.715552,1.729053,1.705177
2020-11-15 22:32:19.016,1.597049,1.711927,1.725053,1.706177
2020-11-15 22:32:19.033,1.596674,1.703052,1.722553,1.705552
2020-11-15 22:32:19.050,1.598674,1.708302,1.713427,1.705552
2020-11-15 22:32:19.067,1.599799,1.709427,1.717302,1.704677
2020-11-15 22:32:19.084,1.597799,1.717927,1.718177,1.704677
2020-11-15 22:32:19.101,1.598299,1.715802,1.724928,1.704677
2020-11-15 22:32:19.118,1.597299,1.714927,1.728553,1.706052
2020-11-15 22:32:19.134,1.596924,1.706302,1.724553,1.707302
2020-11-15 22:32:19.151,1.596924,1.707802,1.721553,1.706052
2020-11-15 22:32:19.169,1.599424,1.708927,1.712052,1.705927
2020-11-15 22:32:19.186,1.599799,1.713052,1.716802,1.704927
2020-11-15 22:32:19.202,1.598924,1.722428,1.720428,1.704552
2020-11-15 22:32:19.219,1.597924,1.715177,1.729803,1.704552
2020-11-15 22:32:19.236,1.596924,1.713552,1.725303,1.705302
2020-11-15 22:32:19.253,1.597799,1.704302,1.724678,1.706177
2020-11-15 22:32:19.270,1.597674,1.707427,1.716802,1.705677
2020-11-15 22:32:19.287,1.600549,1.710302,1.716302,1.705302
2020-11-15 22:32:19.304,1.598549,1.719552,1.718677,1.704427
2020-11-15 22:32:19.322,1.598674,1.719802,1.721428,1.703552
2020-11-15 22:32:19.339,1.596924,1.715052,1.730928,1.703927
2020-11-15 22:32:19.356,1.596924,1.712427,1.725178,1.706677
2020-11-15 22:32:19.373,1.597674,1.704052,1.724178,1.705927
2020-11-15 22:32:19.390,1.597049,1.709427,1.714427,1.705302
2020-11-15 22:32:19.407,1.600799,1.711302,1.716927,1.704927
2020-11-15 22:32:19.424,1.598924,1.720177,1.717677,1.704552
2020-11-15 22:32:19.441,1.597799,1.716302,1.721678,1.704802
2020-11-15 22:32:19.458,1.597674,1.715427,1.725053,1.705677
2020-11-15 22:32:19.475,1.597299,1.708552,1.725053,1.706552
2020-11-15 22:32:19.492,1.597049,1.706052,1.720177,1.705427
2020-11-15 22:32:19.509,1.600924,1.708427,1.711177,1.705802
2020-11-15 22:32:19.526,1.599049,1.711427,1.717802,1.703927
2020-11-15 22:32:19.543,1.598424,1.720678,1.719927,1.703427
2020-11-15 22:32:19.560,1.597674,1.715427,1.729428,1.704677
2020-11-15 22:32:19.577,1.598174,1.712177,1.725803,1.705802
2020-11-15 22:32:19.594,1.596174,1.704052,1.724428,1.706177
2020-11-15 22:32:19.611,1.597799,1.708677,1.719052,1.706052
2020-11-15 22:32:19.628,1.599049,1.708927,1.712677,1.705677
2020-11-15 22:32:19.645,1.599674,1.712552,1.718302,1.704177
2020-11-15 22:32:19.662,1.598924,1.718302,1.718302,1.703927
2020-11-15 22:32:19.681,1.597549,1.716052,1.725178,1.703802
2020-11-15 22:32:19.698,1.596299,1.715177,1.727928,1.705052
2020-11-15 22:32:19.715,1.597799,1.710302,1.724178,1.706552
2020-11-15 22:32:19.732,1.596674,1.707802,1.721303,1.705427
2020-11-15 22:32:19.749,1.599049,1.708677,1.711802,1.705427
2020-11-15 22:32:19.766,1.599924,1.713927,1.717052,1.704552
2020-11-15 22:32:19.783,1.597924,1.721303,1.717177,1.704177
2020-11-15 22:32:19.799,1.596799,1.716052,1.731303,1.704552
2020-11-15 22:32:19.816,1.597424,1.713677,1.724803,1.705427
2020-11-15 22:32:19.833,1.597549,1.704552,1.724053,1.706302
2020-11-15 22:32:19.850,1.597674,1.707677,1.715552,1.705677
2020-11-15 22:32:19.867,1.600549,1.708927,1.716802,1.705052
2020-11-15 22:32:19.884,1.599549,1.714052,1.718302,1.704302
2020-11-15 22:32:19.901,1.598049,1.716802,1.721803,1.705177
2020-11-15 22:32:19.918,1.598424,1.715427,1.730928,1.704927
2020-11-15 22:32:19.935,1.597549,1.709552,1.725303,1.706677
2020-11-15 22:32:19.952,1.597424,1.704552,1.722803,1.706302
2020-11-15 22:32:19.969,1.598174,1.708802,1.713927,1.705677
2020-11-15 22:32:19.986,1.600674,1.711677,1.717427,1.704552
2020-11-15 22:32:20.003,1.599299,1.720428,1.718677,1.704302
2020-11-15 22:32:20.020,1.598299,1.716552,1.728178,1.704802
2020-11-15 22:32:20.037,1.598174,1.715052,1.725178,1.704677
2020-11-15 22:32:20.054,1.597799,1.707802,1.724303,1.706677
2020-11-15 22:32:20.071,1.597674,1.706677,1.720803,1.704677
2020-11-15 22:32:20.088,1.600924,1.708052,1.711677,1.704927
2020-11-15 22:32:20.105,1.597674,1.716052,1.717927,1.703927
2020-11-15 22:32:20.122,1.598799,1.718177,1.719802,1.704052
2020-11-15 22:32:20.139,1.597049,1.715677,1.729178,1.704677
2020-11-15 22:32:20.156,1.598049,1.711927,1.724803,1.706052
2020-11-15 22:32:20.173,1.597549,1.703177,1.723928,1.706052
2020-11-15 22:32:20.190,1.597924,1.708302,1.717927,1.705927
2020-11-15 22:32:20.207,1.601174,1.709552,1.716802,1.704927
2020-11-15 22:32:20.224,1.598924,1.717927,1.718427,1.704052
2020-11-15 22:32:20.241,1.598299,1.716302,1.723553,1.704302
2020-11-15 22:32:20.258,1.597799,1.715177,1.729803,1.704052
2020-11-15 22:32:20.275,1.596924,1.710677,1.724803,1.705927
2020-11-15 22:32:20.292,1.597549,1.708177,1.721928,1.705552
2020-11-15 22:32:20.309,1.598674,1.708427,1.712927,1.705552
2020-11-15 22:32:20.326,1.600299,1.712677,1.717052,1.704552
2020-11-15 22:32:20.343,1.598299,1.721803,1.717802,1.704302
2020-11-15 22:32:20.360,1.597924,1.715927,1.725303,1.705052
2020-11-15 22:32:20.377,1.596799,1.713927,1.725303,1.705302
2020-11-15 22:32:20.394,1.597299,1.704427,1.724303,1.706677
2020-11-15 22:32:20.411,1.597549,1.707677,1.717552,1.704552
2020-11-15 22:32:20.428,1.599674,1.708677,1.714677,1.705052
2020-11-15 22:32:20.445,1.600049,1.713552,1.717927,1.703927
2020-11-15 22:32:20.462,1.597799,1.720928,1.720928,1.704302
2020-11-15 22:32:20.479,1.597424,1.715177,1.730928,1.703927
2020-11-15 22:32:20.497,1.597299,1.715552,1.725553,1.704427
2020-11-15 22:32:20.514,1.597299,1.708177,1.723928,1.706052
2020-11-15 22:32:20.531,1.597924,1.707302,1.720553,1.705427
2020-11-15 22:32:20.548,1.600674,1.709052,1.711427,1.705802
2020-11-15 22:32:20.565,1.599299,1.715177,1.717177,1.704677
2020-11-15 22:32:20.582,1.598674,1.720302,1.718927,1.704677
2020-11-15 22:32:20.599,1.597924,1.715427,1.727428,1.703677
2020-11-15 22:32:20.616,1.597299,1.712427,1.724928,1.705552
2020-11-15 22:32:20.633,1.598299,1.703302,1.723553,1.706177
2020-11-15 22:32:20.650,1.598674,1.707677,1.714302,1.705677
2020-11-15 22:32:20.667,1.600549,1.709177,1.717302,1.705552
2020-11-15 22:32:20.684,1.599049,1.716052,1.717802,1.703677
2020-11-15 22:32:20.701,1.598674,1.716677,1.722803,1.704677
2020-11-15 22:32:20.718,1.597549,1.715177,1.731053,1.704927
2020-11-15 22:32:20.735,1.597799,1.708302,1.724303,1.706552
2020-11-15 22:32:20.752,1.597299,1.706427,1.722178,1.706052
2020-11-15 22:32:20.769,1.598924,1.708552,1.712677,1.705552
2020-11-15 22:32:20.786,1.600549,1.712677,1.715802,1.704427
2020-11-15 22:32:20.803,1.598424,1.721553,1.719427,1.704427
2020-11-15 22:32:20.820,1.598049,1.716177,1.728928,1.704302
2020-11-15 22:32:20.837,1.597674,1.714927,1.725803,1.704427
2020-11-15 22:32:20.854,1.596799,1.705802,1.724428,1.706552
2020-11-15 22:32:20.871,1.598049,1.706802,1.718552,1.705677
2020-11-15 22:32:20.888,1.600674,1.708802,1.713552,1.704927
2020-11-15 22:32:20.905,1.599299,1.718177,1.717927,1.703802
2020-11-15 22:32:20.922,1.598174,1.716052,1.720553,1.704927
2020-11-15 22:32:20.939,1.597299,1.715552,1.729178,1.705052
2020-11-15 22:32:20.956,1.596299,1.711677,1.724303,1.706177
2020-11-15 22:32:20.972,1.598299,1.702927,1.722303,1.705677
2020-11-15 22:32:20.990,1.598799,1.708677,1.712802,1.705177
2020-11-15 22:32:21.006,1.600299,1.710052,1.717177,1.705302
2020-11-15 22:32:21.023,1.599299,1.719302,1.718677,1.704177
2020-11-15 22:32:21.040,1.598424,1.715927,1.725428,1.704052
2020-11-15 22:32:21.057,1.598299,1.714677,1.727178,1.705552
2020-11-15 22:32:21.074,1.597174,1.705177,1.724553,1.706302
2020-11-15 22:32:21.091,1.597299,1.708302,1.720803,1.705927
2020-11-15 22:32:21.108,1.599549,1.708927,1.711302,1.705302
2020-11-15 22:32:21.125,1.599424,1.712927,1.716677,1.704927
2020-11-15 22:32:21.142,1.598549,1.721553,1.717927,1.704927
2020-11-15 22:32:21.159,1.597799,1.715552,1.729928,1.704677
2020-11-15 22:32:21.176,1.597424,1.713677,1.725303,1.705552
2020-11-15 22:32:21.193,1.597049,1.704302,1.724178,1.706302
2020-11-15 22:32:21.210,1.597549,1.707677,1.716177,1.705177
2020-11-15 22:32:21.227,1.600549,1.708302,1.716552,1.704927
2020-11-15 22:32:21.244,1.598924,1.714552,1.718052,1.704177
2020-11-15 22:32:21.261,1.598924,1.717302,1.721303,1.704677
2020-11-15 22:32:21.278,1.597674,1.715552,1.731053,1.705302
2020-11-15 22:32:21.295,1.598174,1.710177,1.725303,1.706802
2020-11-15 22:32:21.312,1.596799,1.703177,1.723928,1.706052
2020-11-15 22:32:21.330,1.597799,1.708427,1.719052,1.705052
2020-11-15 22:32:21.348,1.600924,1.709302,1.711552,1.705052
2020-11-15 22:32:21.364,1.598424,1.716552,1.717927,1.704052
2020-11-15 22:32:21.381,1.597799,1.717302,1.723303,1.704927
2020-11-15 22:32:21.399,1.597549,1.715552,1.731178,1.704552
2020-11-15 22:32:21.415,1.596424,1.712177,1.725303,1.706177
2020-11-15 22:32:21.432,1.597299,1.702802,1.722928,1.704802
2020-11-15 22:32:21.449,1.598174,1.707552,1.713927,1.704552
2020-11-15 22:32:21.466,1.601549,1.712552,1.717427,1.704302
2020-11-15 22:32:21.483,1.598799,1.721428,1.718427,1.704802
2020-11-15 22:32:21.500,1.598549,1.715802,1.724553,1.705052
2020-11-15 22:32:21.517,1.598174,1.715052,1.728678,1.705677
2020-11-15 22:32:21.534,1.597799,1.706802,1.724178,1.707052
2020-11-15 22:32:21.551,1.597049,1.708427,1.721928,1.705802
2020-11-15 22:32:21.568,1.599424,1.708802,1.712552,1.705677
2020-11-15 22:32:21.585,1.599549,1.713052,1.716677,1.703927
2020-11-15 22:32:21.602,1.598549,1.721678,1.720803,1.704677
2020-11-15 22:32:21.620,1.598299,1.715677,1.725428,1.704427
2020-11-15 22:32:21.637,1.597299,1.714552,1.726678,1.705177
2020-11-15 22:32:21.654,1.598299,1.705052,1.723428,1.706927
2020-11-15 22:32:21.671,1.598549,1.708052,1.717552,1.705427
2020-11-15 22:32:21.688,1.600049,1.708927,1.714802,1.704677
2020-11-15 22:32:21.705,1.598924,1.714052,1.717927,1.703927
2020-11-15 22:32:21.722,1.598799,1.720803,1.721303,1.704302
2020-11-15 22:32:21.739,1.597424,1.715552,1.731178,1.703802
2020-11-15 22:32:21.756,1.597049,1.712677,1.725303,1.706677
2020-11-15 22:32:21.773,1.597549,1.703302,1.723928,1.705677
2020-11-15 22:32:21.790,1.598799,1.709302,1.715552,1.705552
2020-11-15 22:32:21.807,1.600299,1.710677,1.716427,1.704927
2020-11-15 22:32:21.824,1.599174,1.720678,1.718677,1.704177
2020-11-15 22:32:21.841,1.598424,1.716177,1.720928,1.705052
2020-11-15 22:32:21.858,1.597674,1.715177,1.726053,1.705552
2020-11-15 22:32:21.875,1.597549,1.709302,1.724428,1.706552
2020-11-15 22:32:21.892,1.598299,1.705552,1.720928,1.705552
2020-11-15 22:32:21.909,1.600799,1.708677,1.711427,1.705552
2020-11-15 22:32:21.926,1.599799,1.711927,1.717427,1.703927
2020-11-15 22:32:21.943,1.598799,1.720052,1.719302,1.704677
2020-11-15 22:32:21.959,1.598549,1.715802,1.728178,1.704427
2020-11-15 22:32:21.976,1.597424,1.713302,1.725303,1.705677
2020-11-15 22:32:21.993,1.597174,1.704052,1.724553,1.706427
2020-11-15 22:32:22.010,1.597049,1.708177,1.719427,1.705927
2020-11-15 22:32:22.027,1.600299,1.709677,1.711427,1.704927
2020-11-15 22:32:22.044,1.598924,1.716802,1.718427,1.704552
2020-11-15 22:32:22.061,1.598424,1.717427,1.722303,1.705302
2020-11-15 22:32:22.078,1.597799,1.715677,1.731428,1.704552
2020-11-15 22:32:22.095,1.597299,1.711802,1.725053,1.706302
2020-11-15 22:32:22.112,1.596924,1.703177,1.722428,1.705302
2020-11-15 22:32:22.129,1.599049,1.707802,1.713552,1.706052
2020-11-15 22:32:22.147,1.600174,1.708677,1.714052,1.705552
2020-11-15 22:32:22.165,1.599424,1.717927,1.717927,1.704302
2020-11-15 22:32:22.182,1.598549,1.716677,1.720302,1.704677
2020-11-15 22:32:22.199,1.598799,1.716052,1.729803,1.704427
2020-11-15 22:32:22.216,1.597549,1.711177,1.725428,1.706802
2020-11-15 22:32:22.233,1.597799,1.703552,1.723928,1.705927
2020-11-15 22:32:22.250,1.597299,1.708302,1.716552,1.706177
2020-11-15 22:32:22.266,1.600049,1.710802,1.717177,1.705052
2020-11-15 22:32:22.283,1.599049,1.719302,1.718177,1.703427
2020-11-15 22:32:22.300,1.598174,1.715802,1.725678,1.704302
2020-11-15 22:32:22.317,1.598174,1.714802,1.727553,1.704677
2020-11-15 22:32:22.334,1.597424,1.710052,1.724303,1.705177
2020-11-15 22:32:22.351,1.597799,1.702677,1.721678,1.705302
2020-11-15 22:32:22.368,1.599174,1.709302,1.711427,1.705552
2020-11-15 22:32:22.385,1.598924,1.713302,1.717552,1.704427
2020-11-15 22:32:22.402,1.598424,1.721178,1.717927,1.704552
2020-11-15 22:32:22.419,1.597674,1.715427,1.726803,1.704552
2020-11-15 22:32:22.436,1.597924,1.713552,1.725053,1.705552
2020-11-15 22:32:22.453,1.596924,1.704552,1.724428,1.706927
2020-11-15 22:32:22.470,1.598049,1.707552,1.715552,1.705927
2020-11-15 22:32:22.487,1.601299,1.708927,1.717052,1.704677
2020-11-15 22:32:22.504,1.599549,1.714552,1.718302,1.703302
2020-11-15 22:32:22.521,1.598549,1.719052,1.721803,1.704052
2020-11-15 22:32:22.538,1.597674,1.713927,1.731053,1.703052
2020-11-15 22:32:22.555,1.597924,1.709802,1.724678,1.706427
2020-11-15 22:32:22.572,1.597674,1.704802,1.722928,1.705927
2020-11-15 22:32:22.589,1.598674,1.708552,1.714052,1.705927
2020-11-15 22:32:22.606,1.600174,1.711552,1.717052,1.705302
2020-11-15 22:32:22.623,1.599299,1.720803,1.717677,1.704177
2020-11-15 22:32:22.640,1.597549,1.716302,1.721428,1.704927
2020-11-15 22:32:22.657,1.597174,1.715177,1.730303,1.705302
2020-11-15 22:32:22.674,1.597174,1.708302,1.724428,1.706552
2020-11-15 22:32:22.691,1.596674,1.706302,1.719427,1.705427
2020-11-15 22:32:22.708,1.599799,1.709052,1.712177,1.705552
2020-11-15 22:32:22.725,1.598299,1.712052,1.717677,1.704427
2020-11-15 22:32:22.742,1.599424,1.721053,1.719927,1.704302
2020-11-15 22:32:22.759,1.597799,1.715802,1.729553,1.704677
2020-11-15 22:32:22.776,1.596924,1.712927,1.725678,1.706177
2020-11-15 22:32:22.793,1.597799,1.703552,1.724053,1.706302
2020-11-15 22:32:22.810,1.598299,1.708427,1.718427,1.705427
2020-11-15 22:32:22.827,1.600549,1.709052,1.712927,1.704677
2020-11-15 22:32:22.844,1.598424,1.717677,1.717552,1.703802
2020-11-15 22:32:22.861,1.598549,1.716552,1.723678,1.704052
2020-11-15 22:32:22.878,1.597299,1.715427,1.729803,1.704802
2020-11-15 22:32:22.895,1.597424,1.711927,1.724678,1.706177
2020-11-15 22:32:22.912,1.597549,1.702927,1.722678,1.705552
2020-11-15 22:32:22.929,1.598424,1.708052,1.713177,1.705427
2020-11-15 22:32:22.946,1.600174,1.709927,1.717302,1.704427
2020-11-15 22:32:22.963,1.599299,1.712927,1.718052,1.703677
2020-11-15 22:32:22.981,1.598674,1.720803,1.721303,1.704677
2020-11-15 22:32:22.998,1.597549,1.715427,1.730428,1.704927
2020-11-15 22:32:23.015,1.597799,1.711177,1.724678,1.706552
2020-11-15 22:32:23.032,1.597299,1.703552,1.724178,1.705177
2020-11-15 22:32:23.049,1.598674,1.709052,1.715052,1.705552
2020-11-15 22:32:23.066,1.601049,1.711052,1.715927,1.704802
2020-11-15 22:32:23.083,1.599549,1.720302,1.717802,1.704177
2020-11-15 22:32:23.100,1.598674,1.716177,1.726803,1.704677
2020-11-15 22:32:23.117,1.597924,1.715052,1.725428,1.704802
2020-11-15 22:32:23.134,1.597174,1.709177,1.724803,1.706427
2020-11-15 22:32:23.151,1.597799,1.704677,1.720553,1.705427
2020-11-15 22:32:23.168,1.600424,1.708677,1.712052,1.704927
2020-11-15 22:32:23.185,1.599549,1.710927,1.717927,1.704427
2020-11-15 22:32:23.202,1.599549,1.719552,1.718927,1.704677
2020-11-15 22:32:23.219,1.598799,1.715802,1.728553,1.704927
2020-11-15 22:32:23.236,1.597924,1.713427,1.725678,1.706302
2020-11-15 22:32:23.253,1.597299,1.704427,1.723553,1.706677
2020-11-15 22:32:23.270,1.597424,1.708177,1.719802,1.705552
2020-11-15 22:32:23.287,1.599799,1.709427,1.717052,1.705052
2020-11-15 22:32:23.304,1.598299,1.716302,1.718302,1.704677
2020-11-15 22:32:23.321,1.597674,1.718302,1.719677,1.704927
2020-11-15 22:32:23.338,1.597424,1.715802,1.728803,1.704927
2020-11-15 22:32:23.355,1.597424,1.712552,1.724678,1.705802
2020-11-15 22:32:23.372,1.597924,1.703177,1.722803,1.705802
2020-11-15 22:32:23.389,1.598299,1.707927,1.713552,1.705052
2020-11-15 22:32:23.406,1.601174,1.709052,1.717052,1.704677
2020-11-15 22:32:23.423,1.599049,1.717677,1.718177,1.703927
2020-11-15 22:32:23.440,1.598424,1.716052,1.723303,1.704427
2020-11-15 22:32:23.457,1.598424,1.714552,1.729678,1.705552
2020-11-15 22:32:23.474,1.597549,1.706677,1.724428,1.706802
2020-11-15 22:32:23.491,1.597549,1.707802,1.722178,1.705927
2020-11-15 22:32:23.508,1.598549,1.709177,1.712177,1.705427
2020-11-15 22:32:23.525,1.600174,1.712427,1.716677,1.704677
2020-11-15 22:32:23.542,1.597299,1.721803,1.721053,1.704927
2020-11-15 22:32:23.559,1.597549,1.715552,1.729928,1.704427
2020-11-15 22:32:23.576,1.598174,1.714052,1.725303,1.704802
2020-11-15 22:32:23.593,1.596799,1.705052,1.724053,1.707052
2020-11-15 22:32:23.610,1.598174,1.707302,1.717552,1.705177
2020-11-15 22:32:23.627,1.599924,1.708427,1.714677,1.705302
2020-11-15 22:32:23.644,1.599674,1.719177,1.718052,1.703927
2020-11-15 22:32:23.661,1.598299,1.716552,1.720928,1.705052
2020-11-15 22:32:23.678,1.597674,1.715677,1.729428,1.705177
2020-11-15 22:32:23.695,1.597299,1.711302,1.725053,1.706302
2020-11-15 22:32:23.712,1.597674,1.703177,1.722178,1.705677
2020-11-15 22:32:23.729,1.597924,1.708927,1.712552,1.705802
2020-11-15 22:32:23.746,1.599424,1.710302,1.717677,1.705802
2020-11-15 22:32:23.763,1.598549,1.719302,1.718177,1.703052
2020-11-15 22:32:23.780,1.597299,1.716552,1.726053,1.703177
2020-11-15 22:32:23.798,1.597174,1.715052,1.730928,1.704052
2020-11-15 22:32:23.815,1.597299,1.712052,1.725053,1.705052
2020-11-15 22:32:23.832,1.597174,1.703052,1.723678,1.706052
2020-11-15 22:32:23.849,1.597674,1.709052,1.714677,1.705552
2020-11-15 22:32:23.866,1.600924,1.710927,1.716927,1.704802
2020-11-15 22:32:23.883,1.598674,1.720803,1.717677,1.704427
2020-11-15 22:32:23.900,1.597924,1.716302,1.721803,1.704302
2020-11-15 22:32:23.917,1.598174,1.715302,1.731678,1.705302
2020-11-15 22:32:23.934,1.597924,1.708552,1.724428,1.706677
2020-11-15 22:32:23.951,1.598049,1.706177,1.722678,1.705552
2020-11-15 22:32:23.968,1.598424,1.708927,1.713302,1.705927
2020-11-15 22:32:23.985,1.599924,1.711427,1.715927,1.705052
2020-11-15 22:32:24.002,1.598924,1.721553,1.719927,1.704552
2020-11-15 22:32:24.019,1.598424,1.715802,1.729178,1.704427
2020-11-15 22:32:24.036,1.597549,1.714427,1.725553,1.705177
2020-11-15 22:32:24.053,1.597174,1.706677,1.724303,1.706427
2020-11-15 22:32:24.070,1.597549,1.707427,1.719302,1.704927
2020-11-15 22:32:24.087,1.600424,1.709052,1.713177,1.705677
2020-11-15 22:32:24.104,1.599049,1.712052,1.718177,1.704552
2020-11-15 22:32:24.121,1.598299,1.717427,1.720302,1.704552
2020-11-15 22:32:24.138,1.597424,1.715177,1.729303,1.704802
2020-11-15 22:32:24.155,1.597424,1.711802,1.725553,1.706552
2020-11-15 22:32:24.172,1.597424,1.702677,1.723928,1.706052
2020-11-15 22:32:24.189,1.597299,1.708677,1.717177,1.705677
2020-11-15 22:32:24.206,1.600549,1.710052,1.714427,1.705552
2020-11-15 22:32:24.223,1.598299,1.718802,1.718427,1.704177
2020-11-15 22:32:24.240,1.598049,1.716427,1.724928,1.704927
2020-11-15 22:32:24.257,1.598174,1.714927,1.728178,1.704427
2020-11-15 22:32:24.274,1.597799,1.710927,1.724428,1.705927
2020-11-15 22:32:24.291,1.597174,1.702427,1.721428,1.705927
2020-11-15 22:32:24.308,1.599424,1.708677,1.712552,1.705427
2020-11-15 22:32:24.325,1.600299,1.714052,1.717302,1.704552
2020-11-15 22:32:24.342,1.598424,1.721553,1.718052,1.705052
2020-11-15 22:32:24.359,1.597924,1.716302,1.725928,1.705177
2020-11-15 22:32:24.376,1.597549,1.714552,1.725303,1.705802
2020-11-15 22:32:24.393,1.597049,1.704677,1.724053,1.706802
2020-11-15 22:32:24.410,1.596299,1.708552,1.716927,1.705677
2020-11-15 22:32:24.427,1.600924,1.708677,1.715802,1.705052
2020-11-15 22:32:24.444,1.598674,1.714052,1.718177,1.704177
2020-11-15 22:32:24.461,1.598924,1.719802,1.721303,1.704302
2020-11-15 22:32:24.478,1.598049,1.715177,1.730678,1.704052
2020-11-15 22:32:24.495,1.597549,1.710302,1.725178,1.706427
2020-11-15 22:32:24.512,1.596424,1.703427,1.724178,1.705927
2020-11-15 22:32:24.529,1.598299,1.709552,1.714552,1.705677
2020-11-15 22:32:24.546,1.599924,1.710927,1.717177,1.705427
2020-11-15 22:32:24.563,1.598424,1.720428,1.717677,1.704677
2020-11-15 22:32:24.580,1.597924,1.716552,1.721303,1.704552
2020-11-15 22:32:24.597,1.597174,1.715302,1.725678,1.705052
2020-11-15 22:32:24.614,1.596424,1.711302,1.724803,1.705927
2020-11-15 22:32:24.632,1.596174,1.703802,1.722928,1.705927
2020-11-15 22:32:24.649,1.597799,1.707802,1.714302,1.705552
2020-11-15 22:32:24.666,1.600049,1.709427,1.716927,1.704802
2020-11-15 22:32:24.683,1.598424,1.716427,1.718177,1.703677
2020-11-15 22:32:24.700,1.598549,1.715427,1.723428,1.704677
2020-11-15 22:32:24.717,1.597799,1.715927,1.730178,1.705677
2020-11-15 22:32:24.734,1.597799,1.707802,1.724553,1.707177
2020-11-15 22:32:24.751,1.596799,1.707052,1.722428,1.706427
2020-11-15 22:32:24.768,1.598549,1.709302,1.713052,1.705802
2020-11-15 22:32:24.785,1.600174,1.712552,1.718302,1.705052
2020-11-15 22:32:24.802,1.597924,1.721553,1.720302,1.704677
2020-11-15 22:32:24.819,1.598674,1.715802,1.730053,1.704677
2020-11-15 22:32:24.836,1.597174,1.713927,1.725053,1.705552
2020-11-15 22:32:24.853,1.597674,1.705052,1.724053,1.706677
2020-11-15 22:32:24.870,1.597549,1.707677,1.717552,1.704802
2020-11-15 22:32:24.887,1.600674,1.710302,1.713802,1.705427
2020-11-15 22:32:24.904,1.598924,1.718927,1.717927,1.703677
2020-11-15 22:32:24.921,1.598049,1.716677,1.719552,1.704677
2020-11-15 22:32:24.938,1.597299,1.715302,1.729928,1.704927
2020-11-15 22:32:24.955,1.597299,1.711427,1.725553,1.707052
2020-11-15 22:32:24.972,1.596549,1.702302,1.721803,1.705552
2020-11-15 22:32:24.989,1.598674,1.708927,1.712802,1.705552
2020-11-15 22:32:25.005,1.600424,1.710552,1.716927,1.704302
2020-11-15 22:32:25.022,1.598674,1.720052,1.718052,1.703677
2020-11-15 22:32:25.039,1.597424,1.715552,1.725428,1.703802
2020-11-15 22:32:25.056,1.597174,1.714177,1.726678,1.705302
2020-11-15 22:32:25.073,1.597674,1.705552,1.724303,1.706927
2020-11-15 22:32:25.090,1.597299,1.708052,1.720553,1.706052
2020-11-15 22:32:25.107,1.599299,1.709302,1.710802,1.705802
2020-11-15 22:32:25.124,1.599174,1.713302,1.717177,1.704552
2020-11-15 22:32:25.141,1.598049,1.720803,1.721803,1.704802
2020-11-15 22:32:25.158,1.597799,1.715927,1.731553,1.704802
2020-11-15 22:32:25.175,1.597799,1.713427,1.724678,1.705427
2020-11-15 22:32:25.192,1.597299,1.703427,1.723803,1.706552
2020-11-15 22:32:25.209,1.597549,1.707927,1.715802,1.705302
2020-11-15 22:32:25.226,1.600799,1.708427,1.716552,1.704427
2020-11-15 22:32:25.243,1.598424,1.720678,1.718052,1.704302
2020-11-15 22:32:25.260,1.598924,1.717052,1.721678,1.704927
2020-11-15 22:32:25.277,1.597174,1.715427,1.731053,1.705802
2020-11-15 22:32:25.294,1.597299,1.709427,1.724678,1.707177
2020-11-15 22:32:25.311,1.595674,1.704927,1.723053,1.705802
2020-11-15 22:32:25.328,1.596049,1.708427,1.711552,1.705052
2020-11-15 22:32:25.345,1.597174,1.711302,1.717802,1.704677
2020-11-15 22:32:25.362,1.598549,1.720553,1.719177,1.704427
2020-11-15 22:32:25.379,1.597799,1.716427,1.727928,1.703802
2020-11-15 22:32:25.396,1.597799,1.714927,1.725553,1.705177
2020-11-15 22:32:25.413,1.597549,1.707927,1.724928,1.706677
2020-11-15 22:32:25.430,1.596924,1.708552,1.720428,1.705302
2020-11-15 22:32:25.448,1.597674,1.709427,1.713552,1.705052
2020-11-15 22:32:25.465,1.600049,1.711802,1.717177,1.704552
2020-11-15 22:32:25.482,1.597674,1.721553,1.718052,1.704427
2020-11-15 22:32:25.499,1.597799,1.716427,1.723928,1.704802
2020-11-15 22:32:25.516,1.596799,1.714677,1.728428,1.705302
2020-11-15 22:32:25.533,1.597424,1.706677,1.724553,1.706802
2020-11-15 22:32:25.550,1.597424,1.707552,1.718677,1.705552
2020-11-15 22:32:25.567,1.599299,1.708927,1.713177,1.705427
2020-11-15 22:32:25.584,1.598549,1.712552,1.718552,1.704427
2020-11-15 22:32:25.601,1.598049,1.721553,1.720928,1.704552
2020-11-15 22:32:25.618,1.596924,1.715802,1.731053,1.705177
2020-11-15 22:32:25.635,1.597049,1.712177,1.725553,1.706802
2020-11-15 22:32:25.652,1.597174,1.702802,1.724803,1.706052
2020-11-15 22:32:25.669,1.597174,1.708802,1.717052,1.706052
2020-11-15 22:32:25.686,1.599924,1.710177,1.715302,1.705302
2020-11-15 22:32:25.703,1.599049,1.718927,1.718177,1.703927
2020-11-15 22:32:25.720,1.598424,1.716552,1.720678,1.705177
2020-11-15 22:32:25.737,1.596799,1.715552,1.728428,1.704927
2020-11-15 22:32:25.754,1.597674,1.710802,1.725053,1.706177
2020-11-15 22:32:25.771,1.597424,1.703052,1.721678,1.705427
2020-11-15 22:32:25.788,1.598799,1.708802,1.712427,1.705552
2020-11-15 22:32:25.805,1.598674,1.710052,1.718052,1.704302
2020-11-15 22:32:25.822,1.597674,1.719552,1.718677,1.704802
2020-11-15 22:32:25.839,1.598174,1.715552,1.727053,1.705302
2020-11-15 22:32:25.856,1.596924,1.714302,1.725803,1.705927
2020-11-15 22:32:25.873,1.597424,1.705052,1.724053,1.707052
2020-11-15 22:32:25.890,1.596424,1.708427,1.720553,1.706427
2020-11-15 22:32:25.907,1.598674,1.709052,1.711677,1.705927
2020-11-15 22:32:25.924,1.598424,1.714552,1.718302,1.704052
2020-11-15 22:32:25.941,1.598174,1.720052,1.721553,1.704302
2020-11-15 22:32:25.958,1.597049,1.715677,1.731553,1.704427
2020-11-15 22:32:25.975,1.597049,1.712052,1.724803,1.705802
2020-11-15 22:32:25.992,1.596924,1.704552,1.724428,1.706052
2020-11-15 22:32:26.009,1.598049,1.707677,1.714302,1.706052
2020-11-15 22:32:26.026,1.600799,1.710927,1.717302,1.704427
2020-11-15 22:32:26.043,1.598674,1.720428,1.718177,1.704302
2020-11-15 22:32:26.060,1.597924,1.716427,1.721803,1.704927
2020-11-15 22:32:26.077,1.597674,1.715302,1.731053,1.704802
2020-11-15 22:32:26.093,1.596799,1.709052,1.723928,1.706677
2020-11-15 22:32:26.110,1.596424,1.705677,1.722553,1.705927
2020-11-15 22:32:26.128,1.598924,1.708802,1.710552,1.705302
2020-11-15 22:32:26.144,1.598549,1.711677,1.718177,1.704302
2020-11-15 22:32:26.161,1.597674,1.720928,1.719677,1.704552
2020-11-15 22:32:26.178,1.597549,1.716177,1.728803,1.704552
2020-11-15 22:32:26.195,1.597049,1.714302,1.725553,1.704552
2020-11-15 22:32:26.213,1.596549,1.707052,1.725303,1.707052
2020-11-15 22:32:26.230,1.596924,1.707427,1.719302,1.705552
2020-11-15 22:32:26.247,1.599174,1.708802,1.712677,1.705177
2020-11-15 22:32:26.264,1.598174,1.709177,1.717052,1.704677
2020-11-15 22:32:26.282,1.597924,1.718302,1.718802,1.704052
2020-11-15 22:32:26.299,1.597674,1.716052,1.724303,1.704677
2020-11-15 22:32:26.316,1.596799,1.714302,1.728553,1.705427
2020-11-15 22:32:26.333,1.597299,1.705677,1.724678,1.706677
2020-11-15 22:32:26.350,1.596549,1.708177,1.721178,1.705677
2020-11-15 22:32:26.367,1.598049,1.709302,1.712177,1.705552
2020-11-15 22:32:26.384,1.599424,1.713302,1.716802,1.704427
2020-11-15 22:32:26.401,1.598674,1.722553,1.721303,1.704552
2020-11-15 22:32:26.418,1.597424,1.715552,1.729553,1.704677
2020-11-15 22:32:26.435,1.597049,1.713677,1.725053,1.704927
2020-11-15 22:32:26.452,1.596924,1.704677,1.724303,1.706927
2020-11-15 22:32:26.469,1.597549,1.707552,1.716427,1.705427
2020-11-15 22:32:26.486,1.600299,1.708427,1.716177,1.705052
2020-11-15 22:32:26.503,1.598174,1.719677,1.717927,1.703677
2020-11-15 22:32:26.520,1.596674,1.716802,1.720928,1.704677
2020-11-15 22:32:26.537,1.597424,1.715427,1.731053,1.704927
2020-11-15 22:32:26.554,1.596549,1.710427,1.724678,1.706552
2020-11-15 22:32:26.571,1.596299,1.703552,1.722678,1.706677
2020-11-15 22:32:26.588,1.597174,1.709177,1.711552,1.705802
2020-11-15 22:32:26.605,1.599424,1.711302,1.717302,1.704302
2020-11-15 22:32:26.622,1.597299,1.719927,1.718552,1.704552
2020-11-15 22:32:26.639,1.597299,1.715177,1.727178,1.704677
2020-11-15 22:32:26.656,1.597424,1.714677,1.725803,1.705927
2020-11-15 22:32:26.673,1.596799,1.704927,1.724678,1.706927
2020-11-15 22:32:26.690,1.596674,1.707927,1.720803,1.705927
2020-11-15 22:32:26.707,1.599424,1.708677,1.711052,1.704927
2020-11-15 22:32:26.723,1.598174,1.715177,1.717552,1.703927
2020-11-15 22:32:26.740,1.597924,1.720177,1.718677,1.704927
2020-11-15 22:32:26.757,1.597424,1.715927,1.731678,1.705052
2020-11-15 22:32:26.774,1.596674,1.712802,1.725428,1.706052
2020-11-15 22:32:26.791,1.596924,1.704302,1.723178,1.706552
2020-11-15 22:32:26.808,1.597299,1.707802,1.713927,1.706177
2020-11-15 22:32:26.825,1.599674,1.708552,1.717427,1.704677
2020-11-15 22:32:26.842,1.598174,1.715927,1.718427,1.704427
2020-11-15 22:32:26.859,1.597424,1.716177,1.722553,1.705302
2020-11-15 22:32:26.876,1.597799,1.715927,1.731053,1.705802
2020-11-15 22:32:26.893,1.596549,1.708177,1.724428,1.707052
2020-11-15 22:32:26.910,1.596049,1.706677,1.722678,1.705677
2020-11-15 22:32:26.927,1.597424,1.709052,1.713552,1.705552
2020-11-15 22:32:26.944,1.598799,1.712177,1.718177,1.704802
2020-11-15 22:32:26.961,1.597049,1.721178,1.720302,1.704302
2020-11-15 22:32:26.978,1.597674,1.715677,1.729428,1.704427
2020-11-15 22:32:26.995,1.597799,1.715052,1.725803,1.705052
2020-11-15 22:32:27.012,1.596799,1.705427,1.724303,1.706052
2020-11-15 22:32:27.029,1.596799,1.708552,1.718802,1.705677
2020-11-15 22:32:27.046,1.599924,1.709177,1.712802,1.704677
2020-11-15 22:32:27.063,1.598049,1.717552,1.717677,1.704177
2020-11-15 22:32:27.080,1.598174,1.716427,1.719552,1.703802
2020-11-15 22:32:27.098,1.596924,1.715677,1.724928,1.704052
2020-11-15 22:32:27.115,1.597049,1.713927,1.726803,1.705802
2020-11-15 22:32:27.132,1.596299,1.705427,1.724803,1.706927
2020-11-15 22:32:27.149,1.597049,1.707802,1.717427,1.705677
2020-11-15 22:32:27.166,1.599799,1.709302,1.715177,1.704802
2020-11-15 22:32:27.183,1.598299,1.713302,1.717427,1.704302
2020-11-15 22:32:27.200,1.597549,1.720803,1.720803,1.704177
2020-11-15 22:32:27.217,1.596674,1.714927,1.729928,1.704677
2020-11-15 22:32:27.234,1.596674,1.711052,1.725428,1.706302
2020-11-15 22:32:27.251,1.596799,1.703177,1.723803,1.705802
2020-11-15 22:32:27.268,1.596674,1.708927,1.715802,1.705802
2020-11-15 22:32:27.285,1.600049,1.710177,1.716302,1.704552
2020-11-15 22:32:27.302,1.597674,1.719177,1.717802,1.704052
2020-11-15 22:32:27.319,1.597049,1.716802,1.726178,1.704302
2020-11-15 22:32:27.336,1.597424,1.715677,1.726053,1.704177
2020-11-15 22:32:27.353,1.595924,1.709677,1.724803,1.706177
2020-11-15 22:32:27.370,1.596674,1.703927,1.720553,1.705177
2020-11-15 22:32:27.387,1.599049,1.708802,1.712052,1.705802
2020-11-15 22:32:27.404,1.597299,1.714177,1.717677,1.703927
2020-11-15 22:32:27.421,1.597424,1.719927,1.718427,1.704427
2020-11-15 22:32:27.438,1.597299,1.715052,1.727803,1.704427
2020-11-15 22:32:27.455,1.596549,1.713177,1.724803,1.705927
2020-11-15 22:32:27.472,1.596549,1.704302,1.724053,1.706677
2020-11-15 22:32:27.489,1.596049,1.707677,1.715427,1.706052
2020-11-15 22:32:27.506,1.600549,1.708802,1.716677,1.704927
2020-11-15 22:32:27.523,1.598049,1.716052,1.718302,1.703677
2020-11-15 22:32:27.540,1.597424,1.718927,1.722178,1.703302
2020-11-15 22:32:27.556,1.598049,1.714427,1.731303,1.704052
2020-11-15 22:32:27.573,1.596674,1.708677,1.724678,1.706677
2020-11-15 22:32:27.590,1.596174,1.705052,1.722678,1.706302
2020-11-15 22:32:27.607,1.597924,1.709052,1.713552,1.705802
2020-11-15 22:32:27.624,1.600049,1.711802,1.715677,1.704802
2020-11-15 22:32:27.641,1.597924,1.721053,1.717677,1.704427
2020-11-15 22:32:27.658,1.596424,1.715302,1.722053,1.703552
2020-11-15 22:32:27.675,1.596424,1.715427,1.725678,1.704677
2020-11-15 22:32:27.692,1.596424,1.707052,1.724178,1.706552
2020-11-15 22:32:27.709,1.596799,1.707052,1.719927,1.705302
2020-11-15 22:32:27.726,1.598799,1.708052,1.711552,1.705427
2020-11-15 22:32:27.743,1.598549,1.711677,1.718302,1.704177
2020-11-15 22:32:27.760,1.597924,1.721178,1.719802,1.704427
2020-11-15 22:32:27.777,1.596924,1.715552,1.729428,1.704552
2020-11-15 22:32:27.794,1.596674,1.712177,1.725428,1.705927
2020-11-15 22:32:27.811,1.596799,1.703302,1.723803,1.706052
2020-11-15 22:32:27.828,1.596674,1.708677,1.717427,1.705552
2020-11-15 22:32:27.845,1.599424,1.709677,1.712677,1.705302
2020-11-15 22:32:27.862,1.597424,1.717927,1.718302,1.704302
2020-11-15 22:32:27.879,1.597674,1.716052,1.723678,1.704427
2020-11-15 22:32:27.896,1.596799,1.714927,1.728678,1.704052
2020-11-15 22:32:27.913,1.596799,1.712927,1.725678,1.704802
2020-11-15 22:32:27.931,1.596299,1.704427,1.724303,1.706427
2020-11-15 22:32:27.949,1.596049,1.707177,1.716677,1.704677
2020-11-15 22:32:27.965,1.600174,1.708552,1.715927,1.705052
2020-11-15 22:32:27.982,1.598424,1.713552,1.717927,1.704177
2020-11-15 22:32:27.999,1.597674,1.716677,1.721678,1.704552
2020-11-15 22:32:28.016,1.597174,1.715427,1.730553,1.704677
2020-11-15 22:32:28.033,1.595924,1.710427,1.724928,1.706802
2020-11-15 22:32:28.050,1.596799,1.702802,1.723053,1.705802
2020-11-15 22:32:28.067,1.596549,1.708677,1.714177,1.705552
2020-11-15 22:32:28.084,1.599299,1.711302,1.718052,1.704927
2020-11-15 22:32:28.101,1.597924,1.719427,1.718427,1.703927
2020-11-15 22:32:28.118,1.597299,1.716552,1.726803,1.704052
2020-11-15 22:32:28.135,1.597424,1.714677,1.725303,1.705177
2020-11-15 22:32:28.152,1.596674,1.709052,1.724178,1.705677
2020-11-15 22:32:28.169,1.596924,1.704052,1.720177,1.705927
2020-11-15 22:32:28.186,1.599049,1.709552,1.711302,1.705427
2020-11-15 22:32:28.203,1.597174,1.714802,1.718052,1.703927
2020-11-15 22:32:28.220,1.597174,1.718802,1.718177,1.704427
2020-11-15 22:32:28.237,1.596799,1.715802,1.728053,1.704927
2020-11-15 22:32:28.254,1.596549,1.712927,1.724678,1.705302
2020-11-15 22:32:28.271,1.595424,1.703802,1.723678,1.706052
2020-11-15 22:32:28.288,1.596924,1.707677,1.714052,1.705177
2020-11-15 22:32:28.305,1.599674,1.708927,1.717302,1.704677
2020-11-15 22:32:28.322,1.598174,1.716177,1.718427,1.703802
2020-11-15 22:32:28.339,1.597924,1.718427,1.722803,1.704052
2020-11-15 22:32:28.356,1.596674,1.715052,1.731053,1.704552
2020-11-15 22:32:28.373,1.596174,1.712052,1.725178,1.706677
2020-11-15 22:32:28.390,1.596549,1.706302,1.722678,1.706552
2020-11-15 22:32:28.407,1.597174,1.708552,1.713427,1.705802
2020-11-15 22:32:28.424,1.600049,1.712302,1.716802,1.704677
2020-11-15 22:32:28.441,1.597799,1.721678,1.717677,1.704927
2020-11-15 22:32:28.458,1.597799,1.715677,1.722928,1.704802
2020-11-15 22:32:28.475,1.596674,1.715177,1.725678,1.705552
2020-11-15 22:32:28.492,1.596799,1.706427,1.724303,1.706552
2020-11-15 22:32:28.509,1.595674,1.707677,1.721178,1.705927
2020-11-15 22:32:28.526,1.598049,1.709302,1.712427,1.705927
2020-11-15 22:32:28.543,1.598424,1.712802,1.717677,1.704302
2020-11-15 22:32:28.560,1.596674,1.721553,1.721053,1.704677
2020-11-15 22:32:28.577,1.596424,1.715552,1.729678,1.704677
2020-11-15 22:32:28.594,1.596424,1.713927,1.725928,1.704552
2020-11-15 22:32:28.611,1.596799,1.705552,1.724428,1.706677
2020-11-15 22:32:28.628,1.596299,1.707427,1.717552,1.705677
2020-11-15 22:32:28.645,1.599799,1.709552,1.714677,1.705302
2020-11-15 22:32:28.662,1.597424,1.718802,1.717677,1.703802
2020-11-15 22:32:28.679,1.596924,1.715802,1.719927,1.703802
2020-11-15 22:32:28.696,1.597799,1.716052,1.730553,1.704802
2020-11-15 22:32:28.713,1.596549,1.711177,1.725303,1.706302
2020-11-15 22:32:28.730,1.595299,1.702802,1.721428,1.705802
2020-11-15 22:32:28.748,1.595299,1.707927,1.716677,1.705552
2020-11-15 22:32:28.765,1.599299,1.708677,1.716052,1.705052
2020-11-15 22:32:28.782,1.597674,1.714302,1.718052,1.704677
2020-11-15 22:32:28.799,1.597174,1.719802,1.721428,1.703927
2020-11-15 22:32:28.816,1.596674,1.715052,1.731428,1.704677
2020-11-15 22:32:28.833,1.596174,1.712302,1.724678,1.706427
2020-11-15 22:32:28.850,1.596924,1.704302,1.722803,1.705802
2020-11-15 22:32:28.867,1.597799,1.709427,1.714052,1.705802
2020-11-15 22:32:28.884,1.599924,1.710927,1.716677,1.704552
2020-11-15 22:32:28.901,1.597299,1.720553,1.718052,1.704802
2020-11-15 22:32:28.918,1.596174,1.716427,1.721803,1.704427
2020-11-15 22:32:28.935,1.595924,1.715552,1.725053,1.704927
2020-11-15 22:32:28.952,1.596299,1.708927,1.724178,1.706427
2020-11-15 22:32:28.969,1.597299,1.705927,1.720177,1.705427
2020-11-15 22:32:28.986,1.598299,1.708302,1.711802,1.705177
2020-11-15 22:32:29.003,1.597549,1.711302,1.717552,1.704052
2020-11-15 22:32:29.020,1.597299,1.720928,1.719427,1.704802
2020-11-15 22:32:29.037,1.596799,1.715427,1.728678,1.705052
2020-11-15 22:32:29.054,1.596799,1.712302,1.723553,1.705177
2020-11-15 22:32:29.071,1.595549,1.707177,1.725053,1.706427
2020-11-15 22:32:29.088,1.596049,1.708302,1.719927,1.706052
2020-11-15 22:32:29.105,1.599049,1.708927,1.711927,1.705552
2020-11-15 22:32:29.122,1.597924,1.716927,1.717927,1.704302
2020-11-15 22:32:29.139,1.596674,1.717177,1.719552,1.705302
2020-11-15 22:32:29.156,1.595674,1.715927,1.729053,1.704802
2020-11-15 22:32:29.173,1.596424,1.712427,1.725178,1.705802
2020-11-15 22:32:29.190,1.596549,1.703302,1.722553,1.705427
2020-11-15 22:32:29.207,1.597049,1.708177,1.714177,1.705927
2020-11-15 22:32:29.224,1.598549,1.709677,1.716427,1.704677
2020-11-15 22:32:29.241,1.597174,1.717802,1.718427,1.704552
2020-11-15 22:32:29.258,1.597674,1.715677,1.724178,1.704927
2020-11-15 22:32:29.275,1.596299,1.715427,1.729303,1.705677
2020-11-15 22:32:29.292,1.595674,1.706677,1.724678,1.707177
2020-11-15 22:32:29.309,1.595924,1.708302,1.721428,1.705552
2020-11-15 22:32:29.326,1.597299,1.708927,1.712427,1.705552
2020-11-15 22:32:29.343,1.598049,1.712802,1.718177,1.703802
2020-11-15 22:32:29.360,1.597549,1.721928,1.720803,1.704802
2020-11-15 22:32:29.377,1.596799,1.715427,1.730053,1.704427
2020-11-15 22:32:29.394,1.596924,1.713927,1.725803,1.704802
2020-11-15 22:32:29.411,1.595924,1.704427,1.724178,1.706552
2020-11-15 22:32:29.428,1.596424,1.707552,1.716927,1.705677
2020-11-15 22:32:29.445,1.599049,1.709552,1.715052,1.704927
2020-11-15 22:32:29.462,1.597174,1.719052,1.718052,1.704552
2020-11-15 22:32:29.479,1.597299,1.716302,1.720678,1.704677
2020-11-15 22:32:29.496,1.596049,1.715427,1.731553,1.705302
2020-11-15 22:32:29.513,1.596299,1.711302,1.724428,1.706552
2020-11-15 22:32:29.530,1.596424,1.703302,1.723678,1.705677
2020-11-15 22:32:29.547,1.596299,1.708927,1.712177,1.706052
2020-11-15 22:32:29.564,1.598299,1.708177,1.717052,1.705427
2020-11-15 22:32:29.582,1.596799,1.714677,1.718052,1.704052
2020-11-15 22:32:29.599,1.597299,1.719302,1.722303,1.704677
2020-11-15 22:32:29.616,1.596174,1.715177,1.731428,1.704552
2020-11-15 22:32:29.633,1.595549,1.712427,1.724303,1.705677
2020-11-15 22:32:29.650,1.596924,1.703927,1.723303,1.705052
2020-11-15 22:32:29.667,1.596049,1.707427,1.714927,1.705802
2020-11-15 22:32:29.684,1.599299,1.711427,1.716177,1.705177
2020-11-15 22:32:29.701,1.597174,1.720052,1.717927,1.703427
2020-11-15 22:32:29.718,1.597299,1.717177,1.722928,1.704427
2020-11-15 22:32:29.735,1.596174,1.714927,1.730678,1.704677
2020-11-15 22:32:29.752,1.596049,1.708427,1.723803,1.706302
2020-11-15 22:32:29.769,1.595549,1.706302,1.721803,1.706052
2020-11-15 22:32:29.786,1.599174,1.708302,1.711302,1.705677
2020-11-15 22:32:29.803,1.597674,1.712052,1.717677,1.703802
2020-11-15 22:32:29.820,1.597299,1.721053,1.720177,1.704552
2020-11-15 22:32:29.837,1.597174,1.715302,1.728928,1.703677
2020-11-15 22:32:29.854,1.596924,1.714802,1.725428,1.705927
2020-11-15 22:32:29.871,1.596674,1.703677,1.724428,1.705677
2020-11-15 22:32:29.888,1.596549,1.708302,1.718802,1.706052
2020-11-15 22:32:29.905,1.598799,1.709177,1.713177,1.704927
2020-11-15 22:32:29.922,1.597674,1.717302,1.717677,1.703802
2020-11-15 22:32:29.939,1.597424,1.716177,1.719927,1.704302
2020-11-15 22:32:29.956,1.597174,1.715427,1.729053,1.704802
2020-11-15 22:32:29.973,1.596049,1.711802,1.724553,1.706802
2020-11-15 22:32:29.990,1.595424,1.702802,1.722678,1.705927
2020-11-15 22:32:30.007,1.597299,1.708302,1.713427,1.705052
2020-11-15 22:32:30.024,1.598799,1.710177,1.717052,1.704802
2020-11-15 22:32:30.041,1.597674,1.718427,1.718302,1.702927
2020-11-15 22:32:30.058,1.597174,1.715552,1.724803,1.704177
2020-11-15 22:32:30.075,1.596299,1.715177,1.727928,1.705302
2020-11-15 22:32:30.092,1.595299,1.705552,1.724553,1.707052
2020-11-15 22:32:30.109,1.596299,1.707802,1.721678,1.706177
2020-11-15 22:32:30.126,1.598549,1.709302,1.712427,1.705927
2020-11-15 22:32:30.143,1.598049,1.713677,1.716802,1.704302
2020-11-15 22:32:30.160,1.597174,1.721928,1.717802,1.704427
2020-11-15 22:32:30.177,1.596924,1.714927,1.730303,1.704552
2020-11-15 22:32:30.193,1.596549,1.713927,1.725303,1.705302
2020-11-15 22:32:30.210,1.596424,1.704177,1.724053,1.706552
2020-11-15 22:32:30.227,1.596924,1.707677,1.716177,1.705177
2020-11-15 22:32:30.244,1.598924,1.708552,1.715552,1.704302
2020-11-15 22:32:30.261,1.598049,1.713677,1.717552,1.704802
2020-11-15 22:32:30.278,1.597049,1.716552,1.721178,1.704552
2020-11-15 22:32:30.295,1.596799,1.715177,1.731178,1.705052
2020-11-15 22:32:30.312,1.596799,1.710802,1.724303,1.706552
2020-11-15 22:32:30.329,1.596174,1.702927,1.723053,1.705302
2020-11-15 22:32:30.346,1.596174,1.708802,1.714677,1.705677
2020-11-15 22:32:30.363,1.599549,1.710427,1.717427,1.704927
2020-11-15 22:32:30.380,1.597924,1.720052,1.718427,1.703427
2020-11-15 22:32:30.399,1.597924,1.718677,1.721928,1.703927
2020-11-15 22:32:30.416,1.596299,1.715927,1.731928,1.704177
2020-11-15 22:32:30.433,1.596299,1.712302,1.725053,1.706177
2020-11-15 22:32:30.450,1.595674,1.703677,1.722803,1.705552
2020-11-15 22:32:30.467,1.597549,1.707552,1.713802,1.704927
2020-11-15 22:32:30.484,1.598799,1.708677,1.717052,1.705052
2020-11-15 22:32:30.501,1.597799,1.720428,1.718427,1.704677
2020-11-15 22:32:30.518,1.597049,1.715802,1.723053,1.704552
2020-11-15 22:32:30.535,1.597174,1.715552,1.730053,1.704552
2020-11-15 22:32:30.552,1.596049,1.706927,1.724303,1.706427
2020-11-15 22:32:30.569,1.595924,1.707302,1.721803,1.705677
2020-11-15 22:32:30.585,1.597549,1.708677,1.712052,1.705677
2020-11-15 22:32:30.603,1.597424,1.712302,1.717677,1.704552
2020-11-15 22:32:30.619,1.597174,1.721053,1.719427,1.704427
2020-11-15 22:32:30.636,1.597549,1.715927,1.729178,1.703927
2020-11-15 22:32:30.653,1.597174,1.714177,1.725178,1.704552
2020-11-15 22:32:30.670,1.596549,1.704677,1.724428,1.705677
2020-11-15 22:32:30.687,1.596174,1.708427,1.717927,1.705302
2020-11-15 22:32:30.704,1.598799,1.709802,1.714302,1.705177
2020-11-15 22:32:30.721,1.598174,1.717677,1.717677,1.703552
2020-11-15 22:32:30.738,1.596299,1.715427,1.720678,1.704177
2020-11-15 22:32:30.755,1.596049,1.715552,1.729178,1.704552
2020-11-15 22:32:30.772,1.595549,1.711177,1.723928,1.705677
2020-11-15 22:32:30.789,1.595674,1.702052,1.721928,1.705177
2020-11-15 22:32:30.806,1.596049,1.708302,1.715927,1.705427
2020-11-15 22:32:30.824,1.598799,1.709802,1.716927,1.704427
2020-11-15 22:32:30.841,1.597049,1.718802,1.718677,1.704302
2020-11-15 22:32:30.858,1.597049,1.716552,1.725678,1.704802
2020-11-15 22:32:30.874,1.596424,1.714802,1.726928,1.704552
2020-11-15 22:32:30.891,1.595424,1.710052,1.724428,1.705677
2020-11-15 22:32:30.908,1.595299,1.702802,1.721303,1.706427
2020-11-15 22:32:30.925,1.597674,1.709302,1.712552,1.705552
2020-11-15 22:32:30.942,1.598549,1.714052,1.717427,1.704427
2020-11-15 22:32:30.959,1.597049,1.721303,1.718302,1.704302
2020-11-15 22:32:30.976,1.597299,1.715302,1.727178,1.704552
2020-11-15 22:32:30.993,1.595799,1.714052,1.724928,1.705427
2020-11-15 22:32:31.010,1.596299,1.704302,1.724053,1.706302
2020-11-15 22:32:31.027,1.596674,1.707802,1.715927,1.705677
2020-11-15 22:32:31.044,1.599674,1.709427,1.717427,1.704802
2020-11-15 22:32:31.061,1.598049,1.714302,1.718552,1.703802
2020-11-15 22:32:31.078,1.596924,1.719177,1.721803,1.704427
2020-11-15 22:32:31.095,1.596049,1.715052,1.731178,1.704427
2020-11-15 22:32:31.112,1.595799,1.709927,1.724803,1.706677
2020-11-15 22:32:31.129,1.596549,1.704802,1.722428,1.706177
2020-11-15 22:32:31.146,1.597299,1.708427,1.714052,1.705302
2020-11-15 22:32:31.163,1.599549,1.711302,1.716677,1.704802
2020-11-15 22:32:31.180,1.597549,1.720678,1.717427,1.704552
2020-11-15 22:32:31.197,1.596674,1.716677,1.721553,1.704302
2020-11-15 22:32:31.214,1.596174,1.714802,1.731178,1.704802
2020-11-15 22:32:31.232,1.596174,1.712302,1.724803,1.706302
2020-11-15 22:32:31.249,1.597299,1.702677,1.722678,1.705552
2020-11-15 22:32:31.266,1.597424,1.708302,1.713677,1.705302
2020-11-15 22:32:31.283,1.599049,1.709052,1.716677,1.704927
2020-11-15 22:32:31.300,1.597424,1.717302,1.717552,1.703177
2020-11-15 22:32:31.317,1.596299,1.715052,1.724053,1.704427
2020-11-15 22:32:31.334,1.596299,1.715052,1.729053,1.705052
2020-11-15 22:32:31.351,1.596924,1.706052,1.724678,1.706677
2020-11-15 22:32:31.368,1.594799,1.707302,1.721428,1.705802
2020-11-15 22:32:31.385,1.597674,1.709052,1.712927,1.705302
2020-11-15 22:32:31.402,1.597424,1.713177,1.716427,1.703802
2020-11-15 22:32:31.419,1.597049,1.721678,1.720177,1.704677
2020-11-15 22:32:31.436,1.596674,1.714802,1.730428,1.704302
2020-11-15 22:32:31.453,1.596299,1.713927,1.725428,1.704677
2020-11-15 22:32:31.470,1.595299,1.705052,1.724553,1.706552
2020-11-15 22:32:31.487,1.596299,1.707302,1.717427,1.705052
2020-11-15 22:32:31.504,1.599674,1.708677,1.715302,1.704552
2020-11-15 22:32:31.521,1.597549,1.712927,1.717802,1.703427
2020-11-15 22:32:31.538,1.596799,1.715802,1.721303,1.704802
2020-11-15 22:32:31.555,1.596299,1.715552,1.730553,1.704677
2020-11-15 22:32:31.572,1.595924,1.710677,1.724928,1.706427
2020-11-15 22:32:31.589,1.596299,1.703177,1.723428,1.705427
2020-11-15 22:32:31.606,1.596174,1.708552,1.712177,1.705302
2020-11-15 22:32:31.623,1.596924,1.710302,1.716677,1.704677
2020-11-15 22:32:31.640,1.597924,1.719427,1.717927,1.704427
2020-11-15 22:32:31.657,1.596174,1.716552,1.726678,1.704052
2020-11-15 22:32:31.674,1.596049,1.714802,1.725553,1.704802
2020-11-15 22:32:31.691,1.595924,1.708802,1.724678,1.705677
2020-11-15 22:32:31.708,1.596049,1.707302,1.720428,1.705802
2020-11-15 22:32:31.725,1.597924,1.709302,1.711052,1.705677
2020-11-15 22:32:31.742,1.597049,1.714052,1.716802,1.704427
2020-11-15 22:32:31.759,1.596799,1.719177,1.719802,1.704677
2020-11-15 22:32:31.776,1.596299,1.715302,1.727678,1.704302
2020-11-15 22:32:31.793,1.597299,1.712677,1.724553,1.706052
2020-11-15 22:32:31.810,1.596049,1.704677,1.723678,1.705927
2020-11-15 22:32:31.827,1.596299,1.707552,1.713927,1.705552
2020-11-15 22:32:31.844,1.599049,1.708927,1.717177,1.704427
2020-11-15 22:32:31.861,1.597424,1.715677,1.718052,1.703677
2020-11-15 22:32:31.878,1.596674,1.717677,1.722928,1.703677
2020-11-15 22:32:31.895,1.597174,1.714552,1.730553,1.704927
2020-11-15 22:32:31.912,1.596299,1.708677,1.724428,1.706302
2020-11-15 22:32:31.929,1.596049,1.706302,1.722553,1.706302
2020-11-15 22:32:31.946,1.596174,1.708427,1.713177,1.705427
2020-11-15 22:32:31.963,1.600174,1.712677,1.716677,1.704302
2020-11-15 22:32:31.980,1.597424,1.721303,1.717052,1.704427
2020-11-15 22:32:31.997,1.596674,1.715802,1.729178,1.704927
2020-11-15 22:32:32.014,1.596674,1.715177,1.725553,1.704802
2020-11-15 22:32:32.031,1.595799,1.706802,1.724428,1.705052
2020-11-15 22:32:32.049,1.596549,1.702427,1.722303,1.705802
2020-11-15 22:32:32.066,1.596424,1.708927,1.713427,1.704802
2020-11-15 22:32:32.083,1.597924,1.709677,1.716552,1.704802
2020-11-15 22:32:32.100,1.597049,1.718552,1.718052,1.703427
2020-11-15 22:32:32.117,1.596674,1.716177,1.725553,1.704677
2020-11-15 22:32:32.134,1.595799,1.714927,1.727928,1.704677
2020-11-15 22:32:32.151,1.596924,1.705552,1.723928,1.706677
2020-11-15 22:32:32.168,1.596299,1.707927,1.720803,1.705052
2020-11-15 22:32:32.185,1.597424,1.709052,1.711677,1.705677
2020-11-15 22:32:32.202,1.597549,1.713802,1.717052,1.704552
2020-11-15 22:32:32.219,1.597299,1.721428,1.720928,1.705177
2020-11-15 22:32:32.236,1.596424,1.715552,1.730803,1.704552
2020-11-15 22:32:32.253,1.596799,1.713552,1.725053,1.705177
2020-11-15 22:32:32.270,1.596299,1.704302,1.723928,1.706177
2020-11-15 22:32:32.287,1.596674,1.707552,1.715927,1.705052
2020-11-15 22:32:32.304,1.598924,1.708427,1.716802,1.705302
2020-11-15 22:32:32.321,1.597049,1.719552,1.718052,1.704052
2020-11-15 22:32:32.338,1.597674,1.716802,1.721053,1.704552
2020-11-15 22:32:32.355,1.596549,1.715802,1.731553,1.704927
2020-11-15 22:32:32.372,1.595424,1.709427,1.724178,1.706552
2020-11-15 22:32:32.389,1.595549,1.704177,1.722928,1.705677
2020-11-15 22:32:32.406,1.596924,1.708552,1.711552,1.704677
2020-11-15 22:32:32.423,1.598549,1.710802,1.717052,1.704802
2020-11-15 22:32:32.439,1.597049,1.720428,1.719177,1.703677
2020-11-15 22:32:32.456,1.597174,1.715677,1.727928,1.704302
2020-11-15 22:32:32.473,1.596799,1.714802,1.725803,1.704177
2020-11-15 22:32:32.490,1.595799,1.707552,1.724303,1.705552
2020-11-15 22:32:32.507,1.596299,1.707802,1.719927,1.705677
2020-11-15 22:32:32.524,1.598549,1.709302,1.710802,1.705302
2020-11-15 22:32:32.541,1.597174,1.715677,1.717052,1.704302
2020-11-15 22:32:32.558,1.597174,1.718302,1.718927,1.704552
2020-11-15 22:32:32.575,1.595674,1.716052,1.728678,1.705052
2020-11-15 22:32:32.592,1.596424,1.712177,1.724553,1.705177
2020-11-15 22:32:32.609,1.595549,1.703427,1.722678,1.706177
2020-11-15 22:32:32.626,1.595924,1.708177,1.714052,1.705802
2020-11-15 22:32:32.643,1.598674,1.709302,1.716677,1.704677
2020-11-15 22:32:32.660,1.597049,1.717427,1.718052,1.703302
2020-11-15 22:32:32.677,1.597674,1.715927,1.723053,1.704677
2020-11-15 22:32:32.694,1.596049,1.715427,1.729928,1.705177
2020-11-15 22:32:32.711,1.596424,1.707302,1.724553,1.706552
2020-11-15 22:32:32.728,1.595549,1.707552,1.721803,1.705677
2020-11-15 22:32:32.745,1.596174,1.708177,1.712802,1.705927
2020-11-15 22:32:32.762,1.597799,1.712427,1.716427,1.704427
2020-11-15 22:32:32.779,1.597174,1.720428,1.719302,1.704427
2020-11-15 22:32:32.796,1.596674,1.715927,1.729803,1.704302
2020-11-15 22:32:32.813,1.596299,1.714052,1.726303,1.705427
2020-11-15 22:32:32.830,1.595549,1.705177,1.724053,1.706427
2020-11-15 22:32:32.847,1.596299,1.707427,1.717427,1.705052
2020-11-15 22:32:32.864,1.599049,1.707302,1.711927,1.705427
2020-11-15 22:32:32.883,1.596799,1.710052,1.717302,1.704677
2020-11-15 22:32:32.900,1.596924,1.719302,1.717677,1.703552
2020-11-15 22:32:32.917,1.596549,1.715677,1.726553,1.704302
2020-11-15 22:32:32.934,1.595299,1.714677,1.725803,1.704927
2020-11-15 22:32:32.951,1.596174,1.704427,1.724428,1.706302
2020-11-15 22:32:32.968,1.595424,1.707427,1.720928,1.705552
2020-11-15 22:32:32.985,1.597674,1.709052,1.710927,1.705302
2020-11-15 22:32:33.002,1.595549,1.714302,1.716927,1.703802
2020-11-15 22:32:33.019,1.596924,1.719677,1.719052,1.704927
2020-11-15 22:32:33.035,1.595549,1.715177,1.727303,1.704552
2020-11-15 22:32:33.053,1.595674,1.712802,1.724803,1.705802
2020-11-15 22:32:33.070,1.596299,1.703927,1.723178,1.705552
2020-11-15 22:32:33.087,1.596549,1.707427,1.714427,1.704802
2020-11-15 22:32:33.104,1.597924,1.709802,1.710927,1.704927
2020-11-15 22:32:33.121,1.596674,1.716052,1.718052,1.703677
2020-11-15 22:32:33.138,1.596549,1.717677,1.722803,1.704052
2020-11-15 22:32:33.155,1.595549,1.714677,1.731553,1.704677
2020-11-15 22:32:33.172,1.595924,1.711802,1.724303,1.705927
2020-11-15 22:32:33.189,1.595424,1.702302,1.722178,1.705427
2020-11-15 22:32:33.206,1.597174,1.707802,1.713427,1.705427
2020-11-15 22:32:33.223,1.598549,1.708677,1.717177,1.704052
2020-11-15 22:32:33.240,1.597924,1.721303,1.718302,1.704802
2020-11-15 22:32:33.257,1.597424,1.715802,1.724053,1.704802
2020-11-15 22:32:33.274,1.595424,1.714677,1.728928,1.705177
2020-11-15 22:32:33.291,1.594799,1.706552,1.724053,1.706302
2020-11-15 22:32:33.308,1.596049,1.706802,1.720928,1.705177
2020-11-15 22:32:33.325,1.596299,1.708552,1.713052,1.705552
2020-11-15 22:32:33.342,1.597674,1.712302,1.717052,1.703927
2020-11-15 22:32:33.359,1.596549,1.721928,1.718052,1.704302
2020-11-15 22:32:33.376,1.596424,1.715677,1.724178,1.704427
2020-11-15 22:32:33.393,1.595174,1.714427,1.726428,1.705177
2020-11-15 22:32:33.410,1.595799,1.705177,1.724053,1.706302
2020-11-15 22:32:33.427,1.596174,1.707802,1.717177,1.705927
2020-11-15 22:32:33.444,1.598924,1.708552,1.714927,1.704802
2020-11-15 22:32:33.461,1.597424,1.712302,1.717552,1.703302
2020-11-15 22:32:33.478,1.597299,1.720177,1.720803,1.704927
2020-11-15 22:32:33.495,1.595424,1.715302,1.730303,1.704427
2020-11-15 22:32:33.512,1.594674,1.710927,1.724678,1.706302
2020-11-15 22:32:33.529,1.595549,1.702927,1.723553,1.705802
2020-11-15 22:32:33.546,1.594674,1.708302,1.715177,1.705302
2020-11-15 22:32:33.563,1.598799,1.709302,1.715802,1.704677
2020-11-15 22:32:33.580,1.595549,1.719427,1.717177,1.704677
2020-11-15 22:32:33.597,1.596549,1.715927,1.725928,1.703927
2020-11-15 22:32:33.614,1.595799,1.715052,1.724928,1.704677
2020-11-15 22:32:33.631,1.596174,1.709052,1.724303,1.706052
2020-11-15 22:32:33.648,1.595424,1.704052,1.721178,1.705427
2020-11-15 22:32:33.665,1.597799,1.708177,1.710927,1.704927
2020-11-15 22:32:33.682,1.596549,1.710427,1.717177,1.703302
2020-11-15 22:32:33.700,1.596424,1.715927,1.718052,1.704177
2020-11-15 22:32:33.717,1.596424,1.716052,1.722803,1.704802
2020-11-15 22:32:33.734,1.596424,1.715177,1.730803,1.704802
2020-11-15 22:32:33.751,1.595424,1.707302,1.724053,1.706052
2020-11-15 22:32:33.768,1.595174,1.706177,1.721553,1.704802
2020-11-15 22:32:33.785,1.595799,1.708927,1.713177,1.705427
2020-11-15 22:32:33.802,1.598674,1.712052,1.716302,1.703302
2020-11-15 22:32:33.819,1.596799,1.721803,1.717427,1.703927
2020-11-15 22:32:33.836,1.596674,1.715802,1.723428,1.704552
2020-11-15 22:32:33.853,1.595674,1.714677,1.727928,1.705052
2020-11-15 22:32:33.870,1.595924,1.705927,1.724303,1.706677
2020-11-15 22:32:33.887,1.596049,1.707552,1.717927,1.705552
2020-11-15 22:32:33.904,1.599549,1.708427,1.713802,1.704802
2020-11-15 22:32:33.921,1.597424,1.712552,1.717802,1.703302
2020-11-15 22:32:33.938,1.597424,1.721428,1.720177,1.704177
2020-11-15 22:32:33.955,1.596174,1.714677,1.729303,1.705052
2020-11-15 22:32:33.972,1.596674,1.711302,1.725053,1.705677
2020-11-15 22:32:33.989,1.595424,1.702677,1.723428,1.705927
2020-11-15 22:32:34.006,1.596299,1.708802,1.716052,1.705552
2020-11-15 22:32:34.023,1.598174,1.709802,1.714302,1.704677
2020-11-15 22:32:34.040,1.596674,1.719177,1.716302,1.703802
2020-11-15 22:32:34.057,1.596674,1.716052,1.720428,1.704927
2020-11-15 22:32:34.074,1.595799,1.714927,1.727178,1.704802
2020-11-15 22:32:34.091,1.596549,1.710177,1.724303,1.706552
2020-11-15 22:32:34.108,1.596424,1.703052,1.721053,1.705927
2020-11-15 22:32:34.125,1.598049,1.708302,1.711552,1.704802
2020-11-15 22:32:34.142,1.598174,1.710552,1.717052,1.703927
2020-11-15 22:32:34.159,1.596549,1.720803,1.718052,1.704677
2020-11-15 22:32:34.176,1.596549,1.715802,1.727178,1.704302
2020-11-15 22:32:34.193,1.596049,1.713427,1.725553,1.705427
2020-11-15 22:32:34.210,1.595049,1.704677,1.724178,1.706552
2020-11-15 22:32:34.227,1.596424,1.707677,1.719427,1.705677
2020-11-15 22:32:34.244,1.598674,1.709052,1.710427,1.705302
2020-11-15 22:32:34.261,1.597674,1.715552,1.717677,1.703677
2020-11-15 22:32:34.278,1.596799,1.719177,1.721803,1.703427
2020-11-15 22:32:34.295,1.595924,1.715927,1.731178,1.704177
2020-11-15 22:32:34.312,1.595799,1.712302,1.724678,1.704802
2020-11-15 22:32:34.329,1.595174,1.703052,1.723053,1.705052
2020-11-15 22:32:34.346,1.596174,1.708552,1.714052,1.705677
2020-11-15 22:32:34.363,1.599799,1.711677,1.716552,1.704302
2020-11-15 22:32:34.380,1.596799,1.720052,1.718177,1.704677
2020-11-15 22:32:34.397,1.596299,1.716177,1.722303,1.704552
2020-11-15 22:32:34.414,1.595049,1.715052,1.730053,1.705052
2020-11-15 22:32:34.431,1.595674,1.706927,1.724428,1.706427
2020-11-15 22:32:34.448,1.596049,1.706677,1.720177,1.705177
2020-11-15 22:32:34.465,1.598549,1.708552,1.711677,1.705177
2020-11-15 22:32:34.482,1.597674,1.711427,1.717552,1.704052
2020-11-15 22:32:34.499,1.596674,1.721553,1.719177,1.704177
2020-11-15 22:32:34.516,1.596174,1.715427,1.724178,1.704302
2020-11-15 22:32:34.534,1.596424,1.714802,1.728803,1.704802
2020-11-15 22:32:34.551,1.596299,1.705802,1.723928,1.706552
2020-11-15 22:32:34.568,1.595049,1.707677,1.721553,1.705677
2020-11-15 22:32:34.585,1.596799,1.708677,1.712052,1.704802
2020-11-15 22:32:34.602,1.597799,1.713177,1.716802,1.704302
2020-11-15 22:32:34.619,1.596299,1.721678,1.717177,1.704427
2020-11-15 22:32:34.636,1.595924,1.715677,1.729928,1.704302
2020-11-15 22:32:34.653,1.596924,1.714177,1.725178,1.704927
2020-11-15 22:32:34.670,1.596174,1.704177,1.724178,1.706802
2020-11-15 22:32:34.687,1.595799,1.707302,1.716427,1.705552
2020-11-15 22:32:34.704,1.599424,1.708302,1.716052,1.704677
2020-11-15 22:32:34.721,1.597174,1.719427,1.717802,1.704302
2020-11-15 22:32:34.738,1.597299,1.716552,1.721053,1.704802
2020-11-15 22:32:34.755,1.595799,1.715427,1.731428,1.704802
2020-11-15 22:32:34.772,1.595674,1.710427,1.724428,1.706552
2020-11-15 22:32:34.789,1.595174,1.704177,1.723178,1.705177
2020-11-15 22:32:34.806,1.596424,1.708802,1.714052,1.705677
2020-11-15 22:32:34.823,1.598924,1.710927,1.717677,1.704302
2020-11-15 22:32:34.839,1.597549,1.719927,1.718177,1.704302
2020-11-15 22:32:34.856,1.596924,1.715802,1.726928,1.703677
2020-11-15 22:32:34.873,1.597049,1.714927,1.725553,1.704427
2020-11-15 22:32:34.890,1.595924,1.707302,1.723803,1.706427
2020-11-15 22:32:34.907,1.596424,1.707302,1.720428,1.705427
2020-11-15 22:32:34.924,1.598549,1.708552,1.710802,1.705302
2020-11-15 22:32:34.941,1.596924,1.714927,1.717302,1.704177
2020-11-15 22:32:34.958,1.597174,1.718677,1.719177,1.704427
2020-11-15 22:32:34.975,1.595799,1.714927,1.728678,1.704427
2020-11-15 22:32:34.992,1.596924,1.712427,1.724803,1.705427
2020-11-15 22:32:35.009,1.595674,1.703052,1.723178,1.705927
2020-11-15 22:32:35.026,1.596674,1.708052,1.714177,1.705177
2020-11-15 22:32:35.043,1.599049,1.708552,1.716677,1.704802
2020-11-15 22:32:35.060,1.597049,1.716177,1.717802,1.703802
2020-11-15 22:32:35.077,1.596299,1.716177,1.722428,1.704427
2020-11-15 22:32:35.094,1.596424,1.714677,1.729928,1.705427
2020-11-15 22:32:35.111,1.595924,1.707302,1.724428,1.706677
2020-11-15 22:32:35.128,1.595924,1.706552,1.722053,1.705677
2020-11-15 22:32:35.145,1.596424,1.708427,1.712177,1.705302
2020-11-15 22:32:35.162,1.598174,1.712552,1.716177,1.704052
2020-11-15 22:32:35.179,1.597424,1.722178,1.719677,1.704427
2020-11-15 22:32:35.196,1.596049,1.715677,1.729678,1.704677
2020-11-15 22:32:35.213,1.596674,1.714802,1.725428,1.705427
2020-11-15 22:32:35.230,1.596799,1.704927,1.724053,1.706302
2020-11-15 22:32:35.247,1.595299,1.707427,1.718177,1.705052
2020-11-15 22:32:35.264,1.598674,1.708677,1.713927,1.705427
2020-11-15 22:32:35.281,1.596799,1.718552,1.717677,1.703927
2020-11-15 22:32:35.298,1.597549,1.715677,1.720177,1.704427
2020-11-15 22:32:35.315,1.596674,1.715177,1.730178,1.704677
2020-11-15 22:32:35.332,1.595924,1.711552,1.724678,1.703927
2020-11-15 22:32:35.350,1.595674,1.704427,1.724178,1.706677
2020-11-15 22:32:35.367,1.595549,1.707177,1.720052,1.704552
2020-11-15 22:32:35.384,1.599174,1.708927,1.716302,1.704552
2020-11-15 22:32:35.401,1.597299,1.713927,1.717677,1.704177
2020-11-15 22:32:35.419,1.596799,1.719552,1.718802,1.703927
2020-11-15 22:32:35.435,1.596299,1.715677,1.728053,1.704052
2020-11-15 22:32:35.452,1.596299,1.712677,1.724678,1.705427
2020-11-15 22:32:35.469,1.595924,1.703927,1.723678,1.705802
2020-11-15 22:32:35.486,1.596424,1.707552,1.714302,1.705052
2020-11-15 22:32:35.503,1.599424,1.709052,1.717052,1.704552
2020-11-15 22:32:35.520,1.596924,1.715302,1.717802,1.703427
2020-11-15 22:32:35.537,1.597299,1.716677,1.721428,1.703302
2020-11-15 22:32:35.555,1.595174,1.715052,1.731428,1.704052
2020-11-15 22:32:35.572,1.596424,1.712052,1.724053,1.705052
2020-11-15 22:32:35.589,1.596049,1.702427,1.722803,1.705677
2020-11-15 22:32:35.606,1.596424,1.708302,1.713302,1.705552
2020-11-15 22:32:35.623,1.599424,1.712177,1.716802,1.704177
2020-11-15 22:32:35.640,1.596299,1.721178,1.717552,1.704427
2020-11-15 22:32:35.656,1.596174,1.716052,1.723303,1.704552
2020-11-15 22:32:35.673,1.595549,1.714677,1.725303,1.704552
2020-11-15 22:32:35.690,1.595799,1.706052,1.724303,1.706677
2020-11-15 22:32:35.707,1.596674,1.707427,1.719052,1.705302
2020-11-15 22:32:35.724,1.598424,1.708677,1.712552,1.704552
2020-11-15 22:32:35.741,1.597174,1.712052,1.717802,1.703302
2020-11-15 22:32:35.758,1.597799,1.721178,1.720052,1.704302
2020-11-15 22:32:35.775,1.596299,1.715427,1.729678,1.704552
2020-11-15 22:32:35.792,1.595924,1.711677,1.725053,1.706302
2020-11-15 22:32:35.809,1.596049,1.702927,1.724303,1.705552
2020-11-15 22:32:35.826,1.595799,1.708427,1.716302,1.705302
2020-11-15 22:32:35.843,1.599174,1.709927,1.714427,1.704677
2020-11-15 22:32:35.860,1.596924,1.719427,1.718677,1.704052
2020-11-15 22:32:35.877,1.596799,1.715927,1.725553,1.704552
2020-11-15 22:32:35.894,1.597299,1.715177,1.727303,1.704052
2020-11-15 22:32:35.911,1.596174,1.710302,1.724178,1.705552
2020-11-15 22:32:35.928,1.595924,1.702802,1.720928,1.705177
2020-11-15 22:32:35.945,1.597799,1.708052,1.711927,1.704927
2020-11-15 22:32:35.962,1.597549,1.713677,1.717302,1.704177
2020-11-15 22:32:35.979,1.597424,1.721428,1.718427,1.704802
2020-11-15 22:32:35.996,1.595924,1.715177,1.726803,1.704677
2020-11-15 22:32:36.013,1.597049,1.713677,1.724928,1.704927
2020-11-15 22:32:36.030,1.594674,1.704052,1.724053,1.705927
2020-11-15 22:32:36.047,1.595674,1.707802,1.720302,1.705552
2020-11-15 22:32:36.064,1.598049,1.708552,1.716927,1.704802
2020-11-15 22:32:36.081,1.598174,1.714427,1.718177,1.703677
2020-11-15 22:32:36.098,1.596299,1.718177,1.721428,1.704927
2020-11-15 22:32:36.115,1.596674,1.715802,1.731428,1.704052
2020-11-15 22:32:36.132,1.595924,1.712552,1.725178,1.705677
2020-11-15 22:32:36.149,1.596799,1.703052,1.723053,1.705677
2020-11-15 22:32:36.166,1.596424,1.706427,1.719552,1.705427
2020-11-15 22:32:36.185,1.599174,1.708302,1.712177,1.704552
2020-11-15 22:32:36.202,1.598174,1.712052,1.717927,1.703677
2020-11-15 22:32:36.219,1.597049,1.720803,1.719927,1.704927
2020-11-15 22:32:36.235,1.597924,1.715552,1.728928,1.704302
2020-11-15 22:32:36.252,1.595924,1.711927,1.724928,1.706177
2020-11-15 22:32:36.269,1.595549,1.703302,1.724053,1.705802
2020-11-15 22:32:36.286,1.595674,1.708552,1.716552,1.705427
2020-11-15 22:32:36.303,1.599299,1.709677,1.713552,1.705177
2020-11-15 22:32:36.320,1.598299,1.718552,1.717052,1.704177
2020-11-15 22:32:36.337,1.597174,1.715802,1.723928,1.704052
2020-11-15 22:32:36.354,1.596424,1.715802,1.728803,1.704302
2020-11-15 22:32:36.371,1.595549,1.711052,1.724303,1.706052
2020-11-15 22:32:36.388,1.596424,1.702802,1.722053,1.705302
2020-11-15 22:32:36.405,1.597299,1.707677,1.712552,1.705052
2020-11-15 22:32:36.422,1.599174,1.709927,1.716927,1.704302
2020-11-15 22:32:36.439,1.597174,1.718677,1.717802,1.704927
2020-11-15 22:32:36.456,1.597549,1.715802,1.726053,1.704552
2020-11-15 22:32:36.473,1.596299,1.713927,1.725928,1.705052
2020-11-15 22:32:36.490,1.595299,1.704427,1.724053,1.706802
2020-11-15 22:32:36.507,1.595674,1.707802,1.720553,1.705427
2020-11-15 22:32:36.524,1.597799,1.708927,1.711052,1.705177
2020-11-15 22:32:36.541,1.597674,1.714302,1.716677,1.704052
2020-11-15 22:32:36.558,1.596924,1.719927,1.721553,1.704302
2020-11-15 22:32:36.575,1.595799,1.715677,1.731678,1.703802
2020-11-15 22:32:36.592,1.596924,1.712802,1.724803,1.704927
2020-11-15 22:32:36.609,1.596674,1.704427,1.723553,1.705677
2020-11-15 22:32:36.626,1.595924,1.707302,1.714802,1.705177
2020-11-15 22:32:36.643,1.598549,1.709052,1.716677,1.704052
2020-11-15 22:32:36.660,1.597424,1.715427,1.718052,1.703552
2020-11-15 22:32:36.677,1.597924,1.716677,1.722053,1.705052
2020-11-15 22:32:36.694,1.596049,1.715427,1.730678,1.705052
2020-11-15 22:32:36.711,1.595924,1.707927,1.724178,1.706177
2020-11-15 22:32:36.728,1.595799,1.706052,1.722553,1.705802
2020-11-15 22:32:36.745,1.596424,1.709052,1.712552,1.705302
2020-11-15 22:32:36.762,1.599674,1.711552,1.715802,1.704177
2020-11-15 22:32:36.779,1.596799,1.721053,1.719552,1.704802
2020-11-15 22:32:36.796,1.596674,1.715552,1.729303,1.704427
2020-11-15 22:32:36.813,1.596424,1.715177,1.725303,1.704802
2020-11-15 22:32:36.830,1.596549,1.706302,1.724053,1.706052
2020-11-15 22:32:36.847,1.596174,1.707677,1.719177,1.705427
2020-11-15 22:32:36.864,1.598799,1.708677,1.712802,1.704427
2020-11-15 22:32:36.881,1.597299,1.716677,1.718552,1.704552
2020-11-15 22:32:36.898,1.597049,1.716677,1.720052,1.704427
2020-11-15 22:32:36.915,1.596174,1.714927,1.729803,1.704302
2020-11-15 22:32:36.932,1.595549,1.711302,1.724803,1.706302
2020-11-15 22:32:36.949,1.595174,1.702427,1.723303,1.705927
2020-11-15 22:32:36.966,1.596549,1.708552,1.712802,1.704927
2020-11-15 22:32:36.983,1.599674,1.709552,1.717052,1.704302
2020-11-15 22:32:37.001,1.597674,1.713302,1.717677,1.703677
2020-11-15 22:32:37.018,1.597174,1.720177,1.721053,1.704302
2020-11-15 22:32:37.035,1.596549,1.715427,1.730928,1.704052
2020-11-15 22:32:37.052,1.596174,1.712927,1.724803,1.704677
2020-11-15 22:32:37.069,1.595924,1.703927,1.724303,1.705802
2020-11-15 22:32:37.086,1.596424,1.708302,1.714677,1.705052
2020-11-15 22:32:37.103,1.599674,1.710302,1.716052,1.704927
2020-11-15 22:32:37.120,1.596674,1.719802,1.717552,1.703802
2020-11-15 22:32:37.137,1.596299,1.716177,1.721678,1.704677
2020-11-15 22:32:37.154,1.596674,1.715052,1.730803,1.704552
2020-11-15 22:32:37.171,1.594674,1.708802,1.723303,1.706552
2020-11-15 22:32:37.188,1.595674,1.704677,1.720177,1.705177
2020-11-15 22:32:37.205,1.598924,1.708802,1.711302,1.704802
2020-11-15 22:32:37.222,1.596799,1.711427,1.717552,1.703927
2020-11-15 22:32:37.239,1.597674,1.720177,1.719552,1.703677
2020-11-15 22:32:37.256,1.596549,1.715177,1.728428,1.704177
2020-11-15 22:32:37.273,1.595549,1.712177,1.724678,1.705677
2020-11-15 22:32:37.290,1.595549,1.703427,1.723928,1.705177
2020-11-15 22:32:37.307,1.595424,1.708177,1.718052,1.705927
2020-11-15 22:32:37.324,1.598299,1.708802,1.711552,1.704802
2020-11-15 22:32:37.341,1.596549,1.716427,1.717302,1.704177
2020-11-15 22:32:37.358,1.597049,1.716552,1.722803,1.703677
2020-11-15 22:32:37.375,1.596174,1.715302,1.729803,1.704052
2020-11-15 22:32:37.392,1.595424,1.711177,1.724678,1.705927
2020-11-15 22:32:37.409,1.596299,1.702427,1.721553,1.704927
2020-11-15 22:32:37.426,1.596674,1.707552,1.712052,1.704802
2020-11-15 22:32:37.443,1.597424,1.708802,1.716177,1.704302
2020-11-15 22:32:37.460,1.595799,1.721303,1.717302,1.703927
2020-11-15 22:32:37.477,1.596674,1.715677,1.724553,1.704052
2020-11-15 22:32:37.494,1.596924,1.714052,1.727178,1.705052
2020-11-15 22:32:37.511,1.595674,1.705427,1.723803,1.706052
2020-11-15 22:32:37.528,1.595299,1.707927,1.720428,1.704927
2020-11-15 22:32:37.545,1.597674,1.708927,1.713802,1.705302
2020-11-15 22:32:37.562,1.597299,1.713052,1.718177,1.704052
2020-11-15 22:32:37.579,1.597049,1.720928,1.720678,1.703802
2020-11-15 22:32:37.596,1.595924,1.714927,1.729678,1.703677
2020-11-15 22:32:37.613,1.596799,1.712677,1.725178,1.704677
2020-11-15 22:32:37.630,1.595549,1.702302,1.723928,1.705177
2020-11-15 22:32:37.647,1.596674,1.708552,1.716052,1.705302
2020-11-15 22:32:37.664,1.599049,1.709927,1.715802,1.704302
2020-11-15 22:32:37.680,1.596424,1.719677,1.717427,1.703302
2020-11-15 22:32:37.698,1.597174,1.718677,1.721303,1.703927
2020-11-15 22:32:37.715,1.596299,1.714927,1.730803,1.705052
2020-11-15 22:32:37.732,1.595799,1.709802,1.724178,1.706552
2020-11-15 22:32:37.749,1.595799,1.704302,1.722928,1.705302
2020-11-15 22:32:37.766,1.596549,1.708927,1.713677,1.705552
2020-11-15 22:32:37.783,1.598424,1.711302,1.716302,1.704052
2020-11-15 22:32:37.800,1.596174,1.719802,1.718427,1.704052
2020-11-15 22:32:37.817,1.596299,1.716302,1.722678,1.704677
2020-11-15 22:32:37.835,1.596799,1.715052,1.730428,1.703927
2020-11-15 22:32:37.852,1.595799,1.711552,1.724428,1.705552
2020-11-15 22:32:37.869,1.595174,1.702927,1.722303,1.705052
2020-11-15 22:32:37.886,1.597174,1.707427,1.712802,1.704302
2020-11-15 22:32:37.903,1.597924,1.708302,1.717552,1.704302
2020-11-15 22:32:37.920,1.597299,1.717927,1.717802,1.704552
2020-11-15 22:32:37.937,1.596424,1.714927,1.723428,1.704677
2020-11-15 22:32:37.954,1.595549,1.714552,1.728303,1.704802
2020-11-15 22:32:37.971,1.594924,1.705802,1.724053,1.706177
2020-11-15 22:32:37.988,1.594799,1.707677,1.720928,1.705552
2020-11-15 22:32:38.005,1.597424,1.708552,1.711177,1.705177
2020-11-15 22:32:38.022,1.597174,1.712177,1.717802,1.704177
2020-11-15 22:32:38.039,1.597174,1.721928,1.720553,1.704427
2020-11-15 22:32:38.056,1.595674,1.715177,1.729553,1.704427
2020-11-15 22:32:38.073,1.595674,1.713677,1.725553,1.704927
2020-11-15 22:32:38.090,1.595549,1.703927,1.723678,1.706177
2020-11-15 22:32:38.107,1.596424,1.707177,1.716427,1.704927
2020-11-15 22:32:38.124,1.598674,1.708802,1.715927,1.705052
2020-11-15 22:32:38.141,1.597424,1.719552,1.717677,1.703802
2020-11-15 22:32:38.158,1.596799,1.716302,1.720428,1.704802
2020-11-15 22:32:38.175,1.595174,1.715177,1.730053,1.704552
2020-11-15 22:32:38.192,1.595674,1.709927,1.723928,1.706677
2020-11-15 22:32:38.209,1.595549,1.703802,1.721178,1.705802
2020-11-15 22:32:38.226,1.595299,1.708677,1.711677,1.705677
2020-11-15 22:32:38.243,1.597049,1.710302,1.717052,1.704177
2020-11-15 22:32:38.260,1.596799,1.719677,1.718302,1.703677
2020-11-15 22:32:38.277,1.595924,1.715802,1.728053,1.704052
2020-11-15 22:32:38.294,1.595674,1.714177,1.725678,1.703927
2020-11-15 22:32:38.311,1.595424,1.707302,1.723678,1.706052
2020-11-15 22:32:38.328,1.596549,1.707802,1.719677,1.705552
2020-11-15 22:32:38.345,1.597424,1.708927,1.711052,1.704552
2020-11-15 22:32:38.362,1.596674,1.715802,1.717052,1.703802
2020-11-15 22:32:38.379,1.596674,1.718552,1.718802,1.703927
2020-11-15 22:32:38.396,1.596049,1.715177,1.728803,1.704927
2020-11-15 22:32:38.413,1.595799,1.712427,1.724803,1.705302
2020-11-15 22:32:38.430,1.595549,1.702552,1.722928,1.705677
2020-11-15 22:32:38.447,1.596674,1.708177,1.713302,1.704677
2020-11-15 22:32:38.464,1.598674,1.708677,1.716552,1.704552
2020-11-15 22:32:38.481,1.597299,1.716927,1.717677,1.703177
2020-11-15 22:32:38.498,1.596549,1.715802,1.722803,1.703927
2020-11-15 22:32:38.514,1.596549,1.714677,1.729803,1.705052
2020-11-15 22:32:38.531,1.595299,1.706552,1.724303,1.705802
2020-11-15 22:32:38.548,1.596049,1.707677,1.721678,1.705302
2020-11-15 22:32:38.565,1.596549,1.708552,1.712302,1.705552
2020-11-15 22:32:38.582,1.597674,1.712677,1.716302,1.704052
2020-11-15 22:32:38.599,1.596549,1.721178,1.720177,1.704302
2020-11-15 22:32:38.616,1.595299,1.715302,1.729678,1.704052
2020-11-15 22:32:38.633,1.595799,1.713427,1.724928,1.703927
2020-11-15 22:32:38.652,1.595924,1.710052,1.724428,1.706427
2020-11-15 22:32:38.669,1.595924,1.702802,1.721303,1.705302
2020-11-15 22:32:38.686,1.597674,1.708302,1.711552,1.704677
2020-11-15 22:32:38.703,1.597799,1.710052,1.716802,1.704302
2020-11-15 22:32:38.720,1.596299,1.719302,1.717927,1.704177
2020-11-15 22:32:38.737,1.596549,1.715427,1.726678,1.704802
2020-11-15 22:32:38.754,1.595674,1.713677,1.725178,1.705177
2020-11-15 22:32:38.771,1.596174,1.703802,1.723803,1.706052
2020-11-15 22:32:38.788,1.596174,1.707552,1.720052,1.705177
2020-11-15 22:32:38.805,1.598424,1.709302,1.710552,1.704927
2020-11-15 22:32:38.822,1.597049,1.714677,1.717927,1.704552
2020-11-15 22:32:38.839,1.597174,1.718802,1.721553,1.703802
2020-11-15 22:32:38.855,1.596299,1.715427,1.731928,1.704302
2020-11-15 22:32:38.873,1.596174,1.712052,1.724053,1.705677
2020-11-15 22:32:38.889,1.595799,1.703052,1.722928,1.705052
2020-11-15 22:32:38.906,1.596049,1.707427,1.713927,1.706177
2020-11-15 22:32:38.923,1.598799,1.710052,1.716052,1.705552
2020-11-15 22:32:38.940,1.596799,1.721428,1.718052,1.704052
2020-11-15 22:32:38.957,1.596924,1.715927,1.722678,1.704802
2020-11-15 22:32:38.974,1.595924,1.715052,1.729928,1.704927
2020-11-15 22:32:38.991,1.596049,1.707177,1.723553,1.706177
2020-11-15 22:32:39.008,1.595799,1.707302,1.720803,1.705552
2020-11-15 22:32:39.025,1.598174,1.708302,1.712427,1.705302
2020-11-15 22:32:39.042,1.597424,1.712427,1.717552,1.703802
2020-11-15 22:32:39.059,1.597049,1.721303,1.719427,1.703927
2020-11-15 22:32:39.076,1.596799,1.715427,1.729553,1.704302
2020-11-15 22:32:39.093,1.596424,1.714177,1.725553,1.704427
2020-11-15 22:32:39.110,1.595049,1.705302,1.724178,1.706052
2020-11-15 22:32:39.127,1.596424,1.707302,1.717677,1.705552
2020-11-15 22:32:39.144,1.598674,1.709427,1.714177,1.704177
2020-11-15 22:32:39.161,1.596674,1.718427,1.717677,1.703927
2020-11-15 22:32:39.178,1.597049,1.716052,1.720052,1.704177
2020-11-15 22:32:39.195,1.595924,1.714927,1.729678,1.704302
2020-11-15 22:32:39.212,1.596549,1.711052,1.724678,1.706177
2020-11-15 22:32:39.229,1.595924,1.702677,1.721553,1.705427
2020-11-15 22:32:39.246,1.597299,1.708552,1.711677,1.705302
2020-11-15 22:32:39.263,1.597549,1.710427,1.717427,1.704177
2020-11-15 22:32:39.280,1.596549,1.719302,1.717802,1.704177
2020-11-15 22:32:39.297,1.596174,1.715927,1.726678,1.703802
2020-11-15 22:32:39.314,1.595799,1.714427,1.724803,1.704427
2020-11-15 22:32:39.331,1.595549,1.708177,1.723803,1.706302
2020-11-15 22:32:39.348,1.595924,1.707927,1.720803,1.705677
2020-11-15 22:32:39.365,1.598049,1.708302,1.710427,1.704927
2020-11-15 22:32:39.382,1.597674,1.714427,1.716552,1.703427
2020-11-15 22:32:39.399,1.596174,1.719802,1.718427,1.704427
2020-11-15 22:32:39.416,1.596299,1.715552,1.727553,1.704677
2020-11-15 22:32:39.433,1.596174,1.712927,1.724553,1.705302
2020-11-15 22:32:39.450,1.595549,1.704302,1.723303,1.705802
2020-11-15 22:32:39.467,1.596674,1.706052,1.719177,1.705927
2020-11-15 22:32:39.485,1.598924,1.708552,1.711802,1.704427
2020-11-15 22:32:39.502,1.595924,1.711302,1.717677,1.703552
2020-11-15 22:32:39.519,1.597799,1.721053,1.719427,1.704427
2020-11-15 22:32:39.536,1.596299,1.714802,1.729053,1.703677
2020-11-15 22:32:39.553,1.595674,1.713677,1.725428,1.706177
2020-11-15 22:32:39.570,1.595674,1.704677,1.724678,1.705552
2020-11-15 22:32:39.587,1.596299,1.707802,1.717427,1.705052
2020-11-15 22:32:39.604,1.598549,1.709052,1.714177,1.704427
2020-11-15 22:32:39.621,1.596549,1.718677,1.717427,1.703552
2020-11-15 22:32:39.638,1.596924,1.716052,1.720052,1.704177
2020-11-15 22:32:39.655,1.596174,1.715177,1.729428,1.705177
2020-11-15 22:32:39.672,1.595424,1.711177,1.724178,1.706052
2020-11-15 22:32:39.689,1.595924,1.703177,1.721553,1.706052
2020-11-15 22:32:39.706,1.597549,1.708552,1.712177,1.705052
2020-11-15 22:32:39.723,1.597674,1.709677,1.716802,1.704802
2020-11-15 22:32:39.740,1.597674,1.719802,1.718302,1.703302
2020-11-15 22:32:39.757,1.596299,1.716052,1.726053,1.704802
2020-11-15 22:32:39.774,1.596174,1.714802,1.725803,1.704552
2020-11-15 22:32:39.791,1.595924,1.709052,1.724303,1.706927
2020-11-15 22:32:39.808,1.595924,1.707677,1.720428,1.705427
2020-11-15 22:32:39.825,1.597424,1.708552,1.711302,1.705177
2020-11-15 22:32:39.842,1.598424,1.714427,1.717427,1.704052
2020-11-15 22:32:39.859,1.597174,1.719427,1.717927,1.704552
2020-11-15 22:32:39.876,1.595299,1.715677,1.727178,1.704302
2020-11-15 22:32:39.893,1.595174,1.712427,1.724678,1.705802
2020-11-15 22:32:39.910,1.595299,1.703552,1.723553,1.705802
2020-11-15 22:32:39.927,1.596174,1.707927,1.714052,1.705427
2020-11-15 22:32:39.944,1.599424,1.708677,1.716427,1.704802
2020-11-15 22:32:39.961,1.597424,1.716177,1.718177,1.703802
2020-11-15 22:32:39.978,1.596799,1.716927,1.722178,1.703802
2020-11-15 22:32:39.996,1.595674,1.715302,1.730553,1.704927
2020-11-15 22:32:40.013,1.596674,1.711927,1.723928,1.705677
2020-11-15 22:32:40.030,1.594674,1.702677,1.722428,1.705427
2020-11-15 22:32:40.047,1.596799,1.708177,1.713302,1.704802
2020-11-15 22:32:40.064,1.598299,1.709302,1.716927,1.704552
2020-11-15 22:32:40.081,1.597549,1.718302,1.717552,1.702802
2020-11-15 22:32:40.098,1.596549,1.715052,1.723928,1.704177
2020-11-15 22:32:40.115,1.596424,1.714802,1.727803,1.705552
2020-11-15 22:32:40.132,1.596424,1.705802,1.724428,1.706552
2020-11-15 22:32:40.149,1.595924,1.707927,1.721303,1.705677
2020-11-15 22:32:40.166,1.596299,1.708677,1.712052,1.705802
2020-11-15 22:32:40.183,1.597674,1.712927,1.716802,1.703927
2020-11-15 22:32:40.200,1.596799,1.721928,1.717427,1.704302
2020-11-15 22:32:40.217,1.596174,1.715677,1.725303,1.704552
2020-11-15 22:32:40.234,1.596049,1.714052,1.725428,1.705052
2020-11-15 22:32:40.251,1.595799,1.704677,1.723553,1.706177
2020-11-15 22:32:40.268,1.596549,1.707677,1.716552,1.705302
2020-11-15 22:32:40.285,1.599299,1.708302,1.716177,1.704677
2020-11-15 22:32:40.303,1.598049,1.711302,1.717052,1.704302
2020-11-15 22:32:40.320,1.596799,1.719802,1.719177,1.703302
2020-11-15 22:32:40.337,1.595674,1.715552,1.728053,1.704177
2020-11-15 22:32:40.354,1.595924,1.714302,1.724428,1.705427
2020-11-15 22:32:40.371,1.596174,1.704052,1.725053,1.706177
2020-11-15 22:32:40.388,1.595549,1.707802,1.719427,1.705302
2020-11-15 22:32:40.405,1.598299,1.708927,1.711802,1.705302
2020-11-15 22:32:40.422,1.596424,1.716302,1.717177,1.703927
2020-11-15 22:32:40.439,1.595924,1.716677,1.718677,1.704177
2020-11-15 22:32:40.456,1.595549,1.715427,1.728428,1.704177
2020-11-15 22:32:40.473,1.596549,1.712177,1.724678,1.705802
2020-11-15 22:32:40.490,1.595049,1.702677,1.722553,1.705677
2020-11-15 22:32:40.507,1.597424,1.707927,1.713302,1.705177
2020-11-15 22:32:40.524,1.598549,1.708927,1.716677,1.704552
2020-11-15 22:32:40.541,1.596049,1.717677,1.718052,1.702927
2020-11-15 22:32:40.558,1.596299,1.716052,1.724178,1.703802
2020-11-15 22:32:40.575,1.595924,1.714052,1.728428,1.703927
2020-11-15 22:32:40.592,1.595549,1.710677,1.724553,1.706302
2020-11-15 22:32:40.609,1.595174,1.707427,1.721553,1.705177
2020-11-15 22:32:40.626,1.597049,1.708552,1.712302,1.705302
2020-11-15 22:32:40.643,1.597674,1.712802,1.716677,1.704552
2020-11-15 22:32:40.660,1.595799,1.722178,1.717927,1.704427
2020-11-15 22:32:40.677,1.595924,1.715302,1.725303,1.704302
2020-11-15 22:32:40.694,1.594924,1.713927,1.725303,1.704927
2020-11-15 22:32:40.711,1.596174,1.705427,1.724678,1.705802
2020-11-15 22:32:40.728,1.596549,1.707177,1.716802,1.705302
2020-11-15 22:32:40.745,1.599174,1.708802,1.715677,1.704802
2020-11-15 22:32:40.762,1.596174,1.713552,1.717052,1.703427
2020-11-15 22:32:40.779,1.596674,1.718802,1.721178,1.704177
2020-11-15 22:32:40.796,1.594924,1.714677,1.730303,1.704927
2020-11-15 22:32:40.813,1.595674,1.710052,1.724928,1.706427
2020-11-15 22:32:40.830,1.594299,1.703552,1.723053,1.705427
2020-11-15 22:32:40.847,1.595299,1.708427,1.713552,1.705677
2020-11-15 22:32:40.864,1.598299,1.710552,1.716052,1.704802
2020-11-15 22:32:40.881,1.596174,1.720302,1.717427,1.704052
2020-11-15 22:32:40.898,1.596049,1.716177,1.721178,1.704552
2020-11-15 22:32:40.915,1.595549,1.715427,1.725678,1.705052
2020-11-15 22:32:40.932,1.595674,1.708177,1.724303,1.705802
2020-11-15 22:32:40.949,1.594799,1.705802,1.719677,1.705302
2020-11-15 22:32:40.966,1.598674,1.708677,1.711427,1.704552
2020-11-15 22:32:40.983,1.597549,1.711802,1.718302,1.703677
2020-11-15 22:32:41.000,1.597049,1.720553,1.719177,1.703802
2020-11-15 22:32:41.017,1.594924,1.715177,1.729053,1.704427
2020-11-15 22:32:41.034,1.595799,1.711927,1.725428,1.705427
2020-11-15 22:32:41.051,1.595549,1.703177,1.724053,1.705552
2020-11-15 22:32:41.068,1.594799,1.707552,1.718302,1.705177
2020-11-15 22:32:41.085,1.597799,1.709177,1.712802,1.704802
2020-11-15 22:32:41.102,1.596174,1.717677,1.716802,1.703927
2020-11-15 22:32:41.119,1.596549,1.711177,1.725303,1.705927
2020-11-15 22:32:41.150,1.595549,1.703177,1.722803,1.704927
2020-11-15 22:32:41.168,1.595799,1.708052,1.713677,1.705177
2020-11-15 22:32:41.184,1.597924,1.708552,1.716677,1.704552
2020-11-15 22:32:41.201,1.596674,1.720803,1.717302,1.704177
2020-11-15 22:32:41.218,1.595799,1.715927,1.728428,1.704302
2020-11-15 22:32:41.234,1.595674,1.712427,1.724553,1.705177
2020-11-15 22:32:41.250,1.595424,1.702677,1.722678,1.705927
2020-11-15 22:32:41.267,1.595049,1.708552,1.711427,1.705427
2020-11-15 22:32:41.283,1.596299,1.714802,1.716927,1.703927
2020-11-15 22:32:41.300,1.596049,1.719427,1.718927,1.704302
2020-11-15 22:32:41.317,1.595674,1.715552,1.727303,1.704177
2020-11-15 22:32:41.334,1.595799,1.712927,1.725178,1.704927
2020-11-15 22:32:41.351,1.594924,1.703427,1.724053,1.705927
2020-11-15 22:32:41.368,1.594674,1.707677,1.714052,1.705302
2020-11-15 22:32:41.385,1.598299,1.708677,1.717052,1.704802
2020-11-15 22:32:41.402,1.596674,1.717802,1.718552,1.703552
2020-11-15 22:32:41.419,1.595924,1.716802,1.722553,1.704052
2020-11-15 22:32:41.436,1.595549,1.715052,1.729553,1.703927
2020-11-15 22:32:41.453,1.594674,1.711177,1.724303,1.705177
2020-11-15 22:32:41.470,1.594674,1.707052,1.722053,1.705552
2020-11-15 22:32:41.487,1.595549,1.707927,1.713427,1.705177
2020-11-15 22:32:41.504,1.597674,1.712052,1.717302,1.704427
2020-11-15 22:32:41.521,1.595299,1.721928,1.717552,1.704177
2020-11-15 22:32:41.538,1.595174,1.715927,1.723803,1.704552
2020-11-15 22:32:41.555,1.595174,1.714552,1.727428,1.705177
2020-11-15 22:32:41.572,1.594674,1.705302,1.723928,1.707052
2020-11-15 22:32:41.589,1.595049,1.707552,1.717427,1.705427
2020-11-15 22:32:41.606,1.598549,1.708552,1.713927,1.704927
2020-11-15 22:32:41.623,1.596799,1.713052,1.717677,1.703927
2020-11-15 22:32:41.640,1.596424,1.721178,1.720678,1.704427
2020-11-15 22:32:41.657,1.595299,1.715052,1.730553,1.704677
2020-11-15 22:32:41.674,1.594799,1.710677,1.724678,1.706052
2020-11-15 22:32:41.691,1.595174,1.703177,1.723803,1.705552
2020-11-15 22:32:41.708,1.595424,1.708427,1.715677,1.705427
2020-11-15 22:32:41.725,1.598924,1.710552,1.716677,1.704802
2020-11-15 22:32:41.742,1.595799,1.719677,1.717052,1.703802
2020-11-15 22:32:41.759,1.595674,1.716677,1.725678,1.704552
2020-11-15 22:32:41.775,1.594924,1.715302,1.725178,1.704427
2020-11-15 22:32:41.792,1.594799,1.709802,1.724178,1.706052
2020-11-15 22:32:41.809,1.595674,1.704302,1.720553,1.705177
2020-11-15 22:32:41.826,1.596674,1.708052,1.711427,1.704677
2020-11-15 22:32:41.843,1.596549,1.714427,1.717427,1.703927
2020-11-15 22:32:41.860,1.596674,1.719802,1.718552,1.703552
2020-11-15 22:32:41.878,1.595174,1.715927,1.721678,1.704302
2020-11-15 22:32:41.895,1.595924,1.714802,1.729178,1.704802
2020-11-15 22:32:41.912,1.594299,1.707177,1.724178,1.706177
2020-11-15 22:32:41.929,1.595549,1.706927,1.719427,1.705052
2020-11-15 22:32:41.946,1.597674,1.708427,1.711927,1.704927
2020-11-15 22:32:41.963,1.596674,1.711427,1.717927,1.703427
2020-11-15 22:32:41.980,1.596674,1.721303,1.719177,1.704052
2020-11-15 22:32:41.997,1.595424,1.714427,1.728678,1.704802
2020-11-15 22:32:42.014,1.595299,1.714052,1.725053,1.706052
2020-11-15 22:32:42.031,1.595299,1.703052,1.723928,1.705677
2020-11-15 22:32:42.048,1.594424,1.708052,1.717677,1.705552
2020-11-15 22:32:42.065,1.598049,1.709552,1.713302,1.705302
2020-11-15 22:32:42.082,1.596674,1.718427,1.717177,1.703802
2020-11-15 22:32:42.099,1.595924,1.716302,1.720052,1.704427
2020-11-15 22:32:42.116,1.595424,1.715552,1.729428,1.704677
2020-11-15 22:32:42.133,1.594299,1.711052,1.724928,1.706052
2020-11-15 22:32:42.150,1.595049,1.702552,1.721553,1.705677
2020-11-15 22:32:42.167,1.596924,1.708427,1.712552,1.704802
2020-11-15 22:32:42.184,1.596549,1.709802,1.716552,1.704427
2020-11-15 22:32:42.201,1.595549,1.719177,1.718302,1.703677
2020-11-15 22:32:42.218,1.594799,1.715927,1.725928,1.703677
2020-11-15 22:32:42.235,1.595799,1.715052,1.725303,1.704802
2020-11-15 22:32:42.252,1.594549,1.704552,1.724303,1.706677
2020-11-15 22:32:42.269,1.594549,1.707927,1.719927,1.705677
2020-11-15 22:32:42.286,1.596424,1.708927,1.711552,1.704927
2020-11-15 22:32:42.304,1.596674,1.710427,1.716677,1.703802
2020-11-15 22:32:42.321,1.596049,1.719552,1.718302,1.704177
2020-11-15 22:32:42.338,1.595299,1.715177,1.728053,1.704552
2020-11-15 22:32:42.355,1.595799,1.712802,1.725178,1.705427
2020-11-15 22:32:42.372,1.594549,1.704177,1.724678,1.705927
2020-11-15 22:32:42.389,1.594549,1.707927,1.719427,1.705427
2020-11-15 22:32:42.406,1.597674,1.709177,1.710552,1.704927
2020-11-15 22:32:42.423,1.594924,1.715802,1.717802,1.703677
2020-11-15 22:32:42.440,1.595549,1.716677,1.722678,1.704552
2020-11-15 22:32:42.456,1.595299,1.715302,1.730178,1.703927
2020-11-15 22:32:42.473,1.594674,1.712302,1.724428,1.705177
2020-11-15 22:32:42.490,1.594424,1.702677,1.722178,1.705177
2020-11-15 22:32:42.507,1.595424,1.708802,1.713802,1.705552
2020-11-15 22:32:42.524,1.597424,1.711802,1.716677,1.704552
2020-11-15 22:32:42.541,1.595924,1.721053,1.718177,1.704427
2020-11-15 22:32:42.558,1.595674,1.715802,1.723678,1.704552
2020-11-15 22:32:42.575,1.593674,1.714677,1.728178,1.705177
2020-11-15 22:32:42.592,1.594549,1.706052,1.723553,1.707052
2020-11-15 22:32:42.609,1.594424,1.707552,1.718427,1.704677
2020-11-15 22:32:42.626,1.596799,1.708802,1.713552,1.705302
2020-11-15 22:32:42.643,1.595674,1.711677,1.717427,1.704802
2020-11-15 22:32:42.660,1.596174,1.721678,1.720177,1.703677
2020-11-15 22:32:42.677,1.595549,1.715302,1.729553,1.703927
2020-11-15 22:32:42.694,1.594799,1.713552,1.726178,1.704802
2020-11-15 22:32:42.712,1.594299,1.705052,1.724678,1.706927
2020-11-15 22:32:42.729,1.594424,1.707427,1.720803,1.705427
2020-11-15 22:32:42.746,1.597174,1.709302,1.711427,1.704802
2020-11-15 22:32:42.763,1.596049,1.713552,1.716677,1.703927
2020-11-15 22:32:42.780,1.595924,1.720302,1.718177,1.704052
2020-11-15 22:32:42.797,1.595174,1.715677,1.731428,1.703927
2020-11-15 22:32:42.814,1.594299,1.713177,1.724678,1.705552
2020-11-15 22:32:42.831,1.594424,1.703802,1.723803,1.705552
2020-11-15 22:32:42.848,1.595549,1.707177,1.715177,1.705427
2020-11-15 22:32:42.865,1.598549,1.708552,1.717302,1.704427
2020-11-15 22:32:42.882,1.595424,1.715052,1.718302,1.703802
2020-11-15 22:32:42.899,1.595424,1.716302,1.722053,1.704302
2020-11-15 22:32:42.916,1.594674,1.715302,1.731053,1.705177
2020-11-15 22:32:42.933,1.594674,1.708427,1.724553,1.706177
2020-11-15 22:32:42.950,1.594049,1.705677,1.722553,1.705552
2020-11-15 22:32:42.967,1.595799,1.708302,1.713052,1.705427
2020-11-15 22:32:42.984,1.597049,1.711802,1.717552,1.704677
2020-11-15 22:32:43.001,1.595049,1.720553,1.719427,1.704302
2020-11-15 22:32:43.018,1.595049,1.715427,1.728303,1.704552
2020-11-15 22:32:43.035,1.595299,1.714677,1.725303,1.704302
2020-11-15 22:32:43.052,1.594299,1.706052,1.724428,1.705927
2020-11-15 22:32:43.069,1.594549,1.707302,1.718427,1.705177
2020-11-15 22:32:43.086,1.596424,1.708052,1.713177,1.704802
2020-11-15 22:32:43.103,1.595049,1.711177,1.718052,1.703927
2020-11-15 22:32:43.120,1.594799,1.716427,1.719802,1.704177
2020-11-15 22:32:43.137,1.595674,1.714927,1.729178,1.704427
2020-11-15 22:32:43.154,1.595549,1.713802,1.725178,1.706427
2020-11-15 22:32:43.171,1.594424,1.702302,1.724428,1.705927
2020-11-15 22:32:43.188,1.594549,1.708052,1.716677,1.705552
2020-11-15 22:32:43.205,1.597174,1.710177,1.714177,1.704802
2020-11-15 22:32:43.222,1.595549,1.718927,1.716927,1.703802
2020-11-15 22:32:43.239,1.594924,1.716302,1.720428,1.703927
2020-11-15 22:32:43.256,1.594049,1.715552,1.729803,1.704552
2020-11-15 22:32:43.273,1.594549,1.710677,1.724553,1.706427
2020-11-15 22:32:43.290,1.594174,1.703177,1.720928,1.705177
2020-11-15 22:32:43.307,1.595174,1.707927,1.711927,1.705302
2020-11-15 22:32:43.324,1.596299,1.710552,1.716927,1.704177
2020-11-15 22:32:43.341,1.595049,1.719677,1.718052,1.703552
2020-11-15 22:32:43.358,1.594299,1.715552,1.726803,1.704177
2020-11-15 22:32:43.375,1.595174,1.713177,1.725178,1.705177
2020-11-15 22:32:43.392,1.594299,1.704302,1.723553,1.706302
2020-11-15 22:32:43.409,1.594549,1.707802,1.720302,1.705552
2020-11-15 22:32:43.426,1.595924,1.708552,1.710302,1.705302
2020-11-15 22:32:43.443,1.595924,1.714677,1.716927,1.704302
2020-11-15 22:32:43.460,1.595174,1.718802,1.718052,1.704052
2020-11-15 22:32:43.477,1.594549,1.715427,1.730928,1.703802
2020-11-15 22:32:43.494,1.594174,1.712552,1.724303,1.705677
2020-11-15 22:32:43.511,1.594799,1.703177,1.723178,1.705552
2020-11-15 22:32:43.529,1.594049,1.706552,1.718802,1.704802
2020-11-15 22:32:43.546,1.596924,1.707802,1.712677,1.704802
2020-11-15 22:32:43.563,1.595549,1.711927,1.717552,1.703802
2020-11-15 22:32:43.580,1.594799,1.716427,1.719927,1.704427
2020-11-15 22:32:43.597,1.594424,1.714802,1.729178,1.704677
2020-11-15 22:32:43.614,1.594549,1.711802,1.724553,1.705927
2020-11-15 22:32:43.631,1.593674,1.702552,1.723553,1.705552
2020-11-15 22:32:43.648,1.595049,1.708177,1.717052,1.705302
2020-11-15 22:32:43.665,1.597049,1.709802,1.713552,1.704552
2020-11-15 22:32:43.682,1.595549,1.719052,1.718052,1.703677
2020-11-15 22:32:43.699,1.595799,1.715927,1.724803,1.703927
2020-11-15 22:32:43.716,1.595049,1.714677,1.727553,1.704052
2020-11-15 22:32:43.733,1.594299,1.709927,1.724178,1.705677
2020-11-15 22:32:43.750,1.593799,1.702177,1.721428,1.705052
2020-11-15 22:32:43.767,1.596424,1.708302,1.711677,1.704802
2020-11-15 22:32:43.784,1.596174,1.712927,1.716927,1.703677
2020-11-15 22:32:43.801,1.595174,1.721053,1.717927,1.704552
2020-11-15 22:32:43.818,1.594174,1.715677,1.726053,1.704427
2020-11-15 22:32:43.835,1.594299,1.713177,1.724803,1.705177
2020-11-15 22:32:43.852,1.594799,1.703927,1.723803,1.706427
2020-11-15 22:32:43.869,1.592924,1.707802,1.715927,1.705177
2020-11-15 22:32:43.886,1.596424,1.708802,1.716427,1.704802
2020-11-15 22:32:43.903,1.595674,1.714427,1.717927,1.703677
2020-11-15 22:32:43.920,1.594549,1.719052,1.721303,1.703552
2020-11-15 22:32:43.937,1.594799,1.715052,1.730553,1.703927
2020-11-15 22:32:43.954,1.593799,1.711927,1.724303,1.704927
2020-11-15 22:32:43.971,1.595174,1.704302,1.722428,1.705427
2020-11-15 22:32:43.988,1.594924,1.708552,1.713927,1.705177
2020-11-15 22:32:44.005,1.597424,1.710927,1.716302,1.704427
2020-11-15 22:32:44.022,1.595924,1.719802,1.718177,1.703927
2020-11-15 22:32:44.039,1.594674,1.716302,1.721428,1.703927
2020-11-15 22:32:44.056,1.595049,1.715302,1.729678,1.704302
2020-11-15 22:32:44.073,1.593549,1.707677,1.723678,1.706177
2020-11-15 22:32:44.090,1.594049,1.706802,1.719677,1.705677
2020-11-15 22:32:44.107,1.597174,1.708427,1.711052,1.705052
2020-11-15 22:32:44.124,1.595549,1.711802,1.717177,1.704302
2020-11-15 22:32:44.141,1.596174,1.721053,1.719552,1.704427
2020-11-15 22:32:44.158,1.595174,1.714802,1.729928,1.703927
2020-11-15 22:32:44.175,1.594049,1.714552,1.725428,1.705802
2020-11-15 22:32:44.192,1.594424,1.702927,1.724303,1.705427
2020-11-15 22:32:44.209,1.593924,1.707927,1.717677,1.705552
2020-11-15 22:32:44.226,1.596799,1.709177,1.713177,1.704802
2020-11-15 22:32:44.243,1.596424,1.718677,1.717802,1.703802
2020-11-15 22:32:44.260,1.595049,1.716427,1.719927,1.704302
2020-11-15 22:32:44.277,1.594799,1.715177,1.729053,1.704427
2020-11-15 22:32:44.294,1.594424,1.710802,1.724053,1.706677
2020-11-15 22:32:44.311,1.593799,1.702052,1.720803,1.704552
2020-11-15 22:32:44.328,1.595299,1.707552,1.712302,1.705302
2020-11-15 22:32:44.345,1.596674,1.707552,1.716177,1.705052
2020-11-15 22:32:44.363,1.595299,1.713052,1.717802,1.703052
2020-11-15 22:32:44.380,1.595924,1.719052,1.721053,1.704552
2020-11-15 22:32:44.397,1.593174,1.715177,1.731053,1.704677
2020-11-15 22:32:44.414,1.594424,1.709427,1.724428,1.706302
2020-11-15 22:32:44.431,1.595299,1.703677,1.723178,1.705552
2020-11-15 22:32:44.448,1.594674,1.708802,1.713177,1.705552
2020-11-15 22:32:44.465,1.597299,1.711177,1.716177,1.704177
2020-11-15 22:32:44.482,1.594799,1.720052,1.717302,1.703802
2020-11-15 22:32:44.499,1.595299,1.715677,1.728053,1.704427
2020-11-15 22:32:44.516,1.594674,1.714552,1.725053,1.704052
2020-11-15 22:32:44.533,1.594549,1.707302,1.724303,1.705677
2020-11-15 22:32:44.550,1.595424,1.705427,1.719802,1.705677
2020-11-15 22:32:44.567,1.596549,1.708177,1.711552,1.704927
2020-11-15 22:32:44.584,1.595799,1.710802,1.716927,1.703302
2020-11-15 22:32:44.601,1.595799,1.720803,1.719052,1.704177
2020-11-15 22:32:44.618,1.594174,1.714802,1.728428,1.703927
2020-11-15 22:32:44.635,1.594674,1.714552,1.725553,1.704427
2020-11-15 22:32:44.652,1.594424,1.705677,1.724428,1.705677
2020-11-15 22:32:44.669,1.594049,1.706927,1.717802,1.704677
2020-11-15 22:32:44.686,1.597549,1.707427,1.713052,1.704552
2020-11-15 22:32:44.703,1.596299,1.717427,1.717177,1.703802
2020-11-15 22:32:44.720,1.594674,1.716177,1.719927,1.704427
2020-11-15 22:32:44.737,1.594424,1.714927,1.729053,1.704427
2020-11-15 22:32:44.754,1.593424,1.711427,1.725053,1.706177
2020-11-15 22:32:44.771,1.594174,1.702177,1.723553,1.705177
2020-11-15 22:32:44.788,1.593299,1.708302,1.712552,1.705427
2020-11-15 22:32:44.805,1.597049,1.709177,1.716802,1.704052
2020-11-15 22:32:44.822,1.595049,1.719302,1.718052,1.702927
2020-11-15 22:32:44.839,1.594174,1.715552,1.725428,1.703927
2020-11-15 22:32:44.856,1.594049,1.714052,1.726303,1.703802
2020-11-15 22:32:44.873,1.593674,1.709552,1.724053,1.705552
2020-11-15 22:32:44.890,1.595174,1.703177,1.721553,1.705802
2020-11-15 22:32:44.907,1.596299,1.708677,1.711052,1.704177
2020-11-15 22:32:44.924,1.596549,1.713427,1.716927,1.703802
2020-11-15 22:32:44.941,1.594799,1.720678,1.717927,1.704177
2020-11-15 22:32:44.958,1.594674,1.715052,1.726928,1.704177
2020-11-15 22:32:44.975,1.595424,1.712927,1.724803,1.705052
2020-11-15 22:32:44.992,1.593799,1.704052,1.723428,1.705802
2020-11-15 22:32:45.009,1.594674,1.707927,1.715427,1.705177
2020-11-15 22:32:45.026,1.596799,1.708427,1.716427,1.704427
2020-11-15 22:32:45.043,1.594924,1.714677,1.717552,1.702927
2020-11-15 22:32:45.060,1.594174,1.717677,1.721678,1.702677
2020-11-15 22:32:45.077,1.594424,1.715302,1.731428,1.703802
2020-11-15 22:32:45.094,1.593924,1.711177,1.724803,1.706427
2020-11-15 22:32:45.111,1.594049,1.705177,1.723178,1.705302
2020-11-15 22:32:45.128,1.594674,1.708302,1.713427,1.705177
2020-11-15 22:32:45.145,1.597424,1.711427,1.715927,1.704177
2020-11-15 22:32:45.162,1.594799,1.720928,1.717052,1.702552
2020-11-15 22:32:45.180,1.594174,1.716302,1.719302,1.703802
2020-11-15 22:32:45.197,1.594424,1.715177,1.728303,1.703927
2020-11-15 22:32:45.214,1.593549,1.711427,1.724428,1.705677
2020-11-15 22:32:45.231,1.594799,1.702552,1.721803,1.704927
2020-11-15 22:32:45.248,1.594924,1.707677,1.712802,1.705177
2020-11-15 22:32:45.265,1.596674,1.709302,1.716552,1.703927
2020-11-15 22:32:45.282,1.595799,1.717927,1.716927,1.702927
2020-11-15 22:32:45.299,1.594674,1.715802,1.725053,1.703927
2020-11-15 22:32:45.316,1.595174,1.714177,1.727053,1.704552
2020-11-15 22:32:45.333,1.593799,1.704927,1.724053,1.706302
2020-11-15 22:32:45.350,1.594049,1.707302,1.720302,1.705302
2020-11-15 22:32:45.367,1.595424,1.708552,1.711427,1.705552
2020-11-15 22:32:45.384,1.596049,1.713052,1.716927,1.704052
2020-11-15 22:32:45.401,1.595424,1.720553,1.720678,1.703677
2020-11-15 22:32:45.418,1.594049,1.715052,1.730303,1.704052
2020-11-15 22:32:45.435,1.593799,1.712802,1.724928,1.704427
2020-11-15 22:32:45.452,1.594424,1.703677,1.723553,1.706052
2020-11-15 22:32:45.469,1.594424,1.707052,1.715552,1.704677
2020-11-15 22:32:45.486,1.597299,1.710052,1.716302,1.704427
2020-11-15 22:32:45.503,1.595549,1.719677,1.717427,1.703802
2020-11-15 22:32:45.520,1.595924,1.716552,1.721428,1.703802
2020-11-15 22:32:45.537,1.594174,1.714802,1.729928,1.704677
2020-11-15 22:32:45.554,1.593799,1.709177,1.723803,1.706677
2020-11-15 22:32:45.571,1.593549,1.704552,1.720302,1.705552
2020-11-15 22:32:45.588,1.595799,1.708302,1.711302,1.704927
2020-11-15 22:32:45.605,1.595799,1.710802,1.717302,1.703802
2020-11-15 22:32:45.622,1.595549,1.720177,1.718927,1.703552
2020-11-15 22:32:45.639,1.594674,1.715427,1.728053,1.703552
2020-11-15 22:32:45.656,1.594299,1.714052,1.725428,1.705802
2020-11-15 22:32:45.673,1.594299,1.703302,1.724303,1.706427
2020-11-15 22:32:45.690,1.594299,1.707552,1.719177,1.705052
2020-11-15 22:32:45.707,1.597549,1.709552,1.711302,1.704427
2020-11-15 22:32:45.724,1.595424,1.716552,1.716927,1.703802
2020-11-15 22:32:45.741,1.595174,1.717177,1.718552,1.704927
2020-11-15 22:32:45.757,1.593924,1.714802,1.730428,1.704552
2020-11-15 22:32:45.775,1.594049,1.711927,1.723678,1.705052
2020-11-15 22:32:45.791,1.594174,1.702052,1.721803,1.705177
2020-11-15 22:32:45.808,1.594549,1.707052,1.712677,1.704552
2020-11-15 22:32:45.825,1.597174,1.708552,1.716302,1.704427
2020-11-15 22:32:45.842,1.594674,1.717677,1.717802,1.704302
2020-11-15 22:32:45.859,1.595424,1.715677,1.723428,1.703927
2020-11-15 22:32:45.876,1.594299,1.714302,1.728678,1.704427
2020-11-15 22:32:45.893,1.593924,1.706052,1.724178,1.706302
2020-11-15 22:32:45.910,1.593424,1.707302,1.720928,1.705677
2020-11-15 22:32:45.927,1.595799,1.707802,1.711552,1.704802
2020-11-15 22:32:45.944,1.595674,1.712177,1.717552,1.704052
2020-11-15 22:32:45.961,1.593924,1.721303,1.720428,1.704677
2020-11-15 22:32:45.978,1.594674,1.715677,1.729428,1.704302
2020-11-15 22:32:45.995,1.594174,1.714302,1.726303,1.704177
2020-11-15 22:32:46.013,1.595049,1.710052,1.724303,1.705802
2020-11-15 22:32:46.030,1.594424,1.703677,1.720177,1.704927
2020-11-15 22:32:46.048,1.596424,1.707677,1.711427,1.704802
2020-11-15 22:32:46.064,1.595549,1.713177,1.717052,1.703677
2020-11-15 22:32:46.081,1.595424,1.720052,1.718927,1.704552
2020-11-15 22:32:46.098,1.594799,1.714552,1.727928,1.704427
2020-11-15 22:32:46.115,1.594674,1.712677,1.725553,1.705052
2020-11-15 22:32:46.132,1.593299,1.703927,1.723178,1.705677
2020-11-15 22:32:46.149,1.593799,1.707302,1.714177,1.705802
2020-11-15 22:32:46.166,1.596924,1.708677,1.715927,1.704927
2020-11-15 22:32:46.183,1.595549,1.715427,1.717177,1.703552
2020-11-15 22:32:46.200,1.594299,1.717677,1.721553,1.704177
2020-11-15 22:32:46.217,1.594799,1.714927,1.731178,1.703927
2020-11-15 22:32:46.234,1.594549,1.711302,1.724178,1.706177
2020-11-15 22:32:46.251,1.593924,1.705052,1.722428,1.705927
2020-11-15 22:32:46.268,1.595299,1.708552,1.712927,1.704927
2020-11-15 22:32:46.285,1.596174,1.711552,1.715927,1.704052
2020-11-15 22:32:46.302,1.594924,1.721178,1.717802,1.704052
2020-11-15 22:32:46.319,1.594674,1.715927,1.721928,1.704177
2020-11-15 22:32:46.336,1.594924,1.714427,1.725178,1.704177
2020-11-15 22:32:46.353,1.594924,1.706552,1.724178,1.706552
2020-11-15 22:32:46.370,1.594924,1.706677,1.718677,1.704302
2020-11-15 22:32:46.387,1.596924,1.707802,1.712427,1.704927
2020-11-15 22:32:46.404,1.595924,1.711677,1.717427,1.703802
2020-11-15 22:32:46.421,1.595799,1.720928,1.720177,1.704177
2020-11-15 22:32:46.438,1.595049,1.715302,1.729178,1.704677
2020-11-15 22:32:46.455,1.594424,1.711427,1.724678,1.706302
2020-11-15 22:32:46.472,1.594549,1.701927,1.723803,1.705677
2020-11-15 22:32:46.489,1.595174,1.708427,1.716427,1.705302
2020-11-15 22:32:46.506,1.597549,1.709552,1.713552,1.704427
2020-11-15 22:32:46.523,1.595049,1.718427,1.716677,1.703552
2020-11-15 22:32:46.540,1.595174,1.715552,1.724428,1.704177
2020-11-15 22:32:46.557,1.595049,1.715427,1.728178,1.704177
2020-11-15 22:32:46.574,1.593549,1.710052,1.724428,1.706302
2020-11-15 22:32:46.591,1.592924,1.702427,1.720928,1.704802
2020-11-15 22:32:46.608,1.593799,1.707927,1.711802,1.705177
2020-11-15 22:32:46.625,1.595049,1.709177,1.716677,1.703802
2020-11-15 22:32:46.642,1.594424,1.721428,1.717802,1.704177
2020-11-15 22:32:46.659,1.592924,1.715177,1.726053,1.704677
2020-11-15 22:32:46.676,1.594924,1.713552,1.724928,1.705177
2020-11-15 22:32:46.693,1.593424,1.704802,1.723303,1.706302
2020-11-15 22:32:46.710,1.594674,1.707302,1.719927,1.705552
2020-11-15 22:32:46.727,1.595549,1.708302,1.715802,1.705052
2020-11-15 22:32:46.744,1.594799,1.714052,1.718427,1.702927
2020-11-15 22:32:46.761,1.594049,1.719052,1.721178,1.703927
2020-11-15 22:32:46.778,1.595049,1.714677,1.731178,1.703927
2020-11-15 22:32:46.795,1.594049,1.712427,1.724303,1.705302
2020-11-15 22:32:46.812,1.593299,1.702927,1.722178,1.705052
2020-11-15 22:32:46.830,1.594174,1.707677,1.718677,1.704802
2020-11-15 22:32:46.847,1.596924,1.708552,1.711177,1.705052
2020-11-15 22:32:46.864,1.595299,1.716177,1.716802,1.703677
2020-11-15 22:32:46.881,1.595174,1.717052,1.718927,1.704552
2020-11-15 22:32:46.898,1.594674,1.715302,1.728553,1.704427
2020-11-15 22:32:46.915,1.593674,1.712177,1.724803,1.705802
2020-11-15 22:32:46.932,1.594049,1.703052,1.723303,1.705427
2020-11-15 22:32:46.949,1.594674,1.707552,1.716802,1.705302
2020-11-15 22:32:46.966,1.596674,1.709552,1.712927,1.704927
2020-11-15 22:32:46.983,1.595424,1.717677,1.717552,1.703677
2020-11-15 22:32:47.000,1.594799,1.715802,1.723178,1.704302
2020-11-15 22:32:47.017,1.595299,1.715552,1.728428,1.703802
2020-11-15 22:32:47.034,1.593924,1.711052,1.724553,1.705552
2020-11-15 22:32:47.051,1.593799,1.701552,1.721303,1.705052
2020-11-15 22:32:47.068,1.595174,1.708177,1.712427,1.704802
2020-11-15 22:32:47.085,1.596674,1.712427,1.716927,1.704302
2020-11-15 22:32:47.102,1.594549,1.722053,1.717427,1.703927
2020-11-15 22:32:47.119,1.593924,1.714802,1.726553,1.704927
2020-11-15 22:32:47.136,1.595174,1.713552,1.726303,1.705177
2020-11-15 22:32:47.153,1.594424,1.704802,1.723678,1.706427
2020-11-15 22:32:47.170,1.593924,1.707552,1.719927,1.705052
2020-11-15 22:32:47.187,1.595799,1.708677,1.711177,1.704552
2020-11-15 22:32:47.204,1.594549,1.713552,1.717677,1.703677
2020-11-15 22:32:47.221,1.594924,1.720177,1.721053,1.703802
2020-11-15 22:32:47.238,1.594174,1.714677,1.730928,1.704052
2020-11-15 22:32:47.255,1.594299,1.712552,1.724678,1.704927
2020-11-15 22:32:47.272,1.594174,1.703677,1.723053,1.705552
2020-11-15 22:32:47.289,1.594049,1.706927,1.714552,1.704177
2020-11-15 22:32:47.306,1.597799,1.710427,1.717177,1.704802
2020-11-15 22:32:47.323,1.595174,1.718927,1.717427,1.704052
2020-11-15 22:32:47.340,1.594924,1.716052,1.721678,1.703927
2020-11-15 22:32:47.357,1.594674,1.715052,1.730553,1.704677
2020-11-15 22:32:47.374,1.594049,1.708302,1.723553,1.706052
2020-11-15 22:32:47.391,1.593924,1.705052,1.722553,1.705552
2020-11-15 22:32:47.408,1.593549,1.708677,1.711052,1.705302
2020-11-15 22:32:47.425,1.594049,1.710927,1.717052,1.703177
2020-11-15 22:32:47.442,1.595424,1.720678,1.719427,1.704052
2020-11-15 22:32:47.459,1.593049,1.715302,1.728303,1.703802
2020-11-15 22:32:47.476,1.594549,1.714427,1.724803,1.704677
2020-11-15 22:32:47.493,1.593924,1.706177,1.723553,1.706052
2020-11-15 22:32:47.510,1.593799,1.707052,1.718927,1.704677
2020-11-15 22:32:47.527,1.597174,1.707677,1.711802,1.704802
2020-11-15 22:32:47.544,1.594924,1.716427,1.716802,1.703677
2020-11-15 22:32:47.561,1.593674,1.716552,1.719927,1.704677
2020-11-15 22:32:47.578,1.594924,1.715302,1.729178,1.704427
2020-11-15 22:32:47.595,1.593174,1.711552,1.724678,1.705552
2020-11-15 22:32:47.612,1.593299,1.702052,1.723678,1.705177
2020-11-15 22:32:47.629,1.593799,1.708427,1.712677,1.705302
2020-11-15 22:32:47.646,1.595174,1.707302,1.713177,1.704427
2020-11-15 22:32:47.664,1.595049,1.712552,1.717177,1.703677
2020-11-15 22:32:47.681,1.594799,1.721303,1.720302,1.703552
2020-11-15 22:32:47.698,1.593049,1.714677,1.730053,1.703552
2020-11-15 22:32:47.715,1.594299,1.712427,1.724928,1.706052
2020-11-15 22:32:47.732,1.594549,1.702677,1.723678,1.705302
2020-11-15 22:32:47.749,1.594049,1.708302,1.715802,1.705552
2020-11-15 22:32:47.766,1.597049,1.709927,1.716052,1.704677
2020-11-15 22:32:47.783,1.595174,1.719177,1.717052,1.703927
2020-11-15 22:32:47.800,1.594799,1.715427,1.720928,1.704802
2020-11-15 22:32:47.817,1.594924,1.714677,1.730053,1.704302
2020-11-15 22:32:47.834,1.593174,1.709802,1.724428,1.705677
2020-11-15 22:32:47.851,1.593924,1.704302,1.720803,1.705927
2020-11-15 22:32:47.868,1.595549,1.708677,1.711177,1.704427
2020-11-15 22:32:47.885,1.596549,1.710177,1.717802,1.704052
2020-11-15 22:32:47.902,1.595299,1.719927,1.718552,1.703052
2020-11-15 22:32:47.919,1.594799,1.714927,1.727553,1.703302
2020-11-15 22:32:47.936,1.594049,1.713802,1.724803,1.705302
2020-11-15 22:32:47.953,1.593424,1.703802,1.724303,1.705802
2020-11-15 22:32:47.970,1.594174,1.707302,1.719802,1.705177
2020-11-15 22:32:47.987,1.596049,1.708677,1.710677,1.704802
2020-11-15 22:32:48.004,1.595174,1.715802,1.717177,1.703802
2020-11-15 22:32:48.021,1.594924,1.717927,1.718427,1.704552
2020-11-15 22:32:48.038,1.593424,1.714927,1.730803,1.704302
2020-11-15 22:32:48.055,1.594424,1.712177,1.724178,1.705927
2020-11-15 22:32:48.072,1.593424,1.703427,1.722178,1.706052
2020-11-15 22:32:48.089,1.594299,1.708177,1.713177,1.705302
2020-11-15 22:32:48.106,1.597174,1.709052,1.715927,1.704177
2020-11-15 22:32:48.123,1.594799,1.716802,1.717427,1.703302
2020-11-15 22:32:48.140,1.595174,1.715052,1.723053,1.703927
2020-11-15 22:32:48.157,1.594799,1.714552,1.728803,1.704802
2020-11-15 22:32:48.174,1.594049,1.706552,1.724178,1.706677
2020-11-15 22:32:48.191,1.593799,1.707677,1.721428,1.705677
2020-11-15 22:32:48.208,1.594674,1.708427,1.712552,1.705677
2020-11-15 22:32:48.225,1.596674,1.711677,1.716552,1.704177
2020-11-15 22:32:48.242,1.595299,1.721178,1.717177,1.704177
2020-11-15 22:32:48.259,1.594924,1.714927,1.724553,1.704052
2020-11-15 22:32:48.276,1.594174,1.713927,1.725053,1.705177
2020-11-15 22:32:48.293,1.593299,1.705052,1.724428,1.706552
2020-11-15 22:32:48.310,1.594799,1.707427,1.716177,1.705302
2020-11-15 22:32:48.327,1.595299,1.708552,1.711427,1.704677
2020-11-15 22:32:48.344,1.594799,1.713302,1.716802,1.703802
2020-11-15 22:32:48.361,1.594674,1.720428,1.721428,1.704302
2020-11-15 22:32:48.378,1.594174,1.714927,1.730553,1.703552
2020-11-15 22:32:48.395,1.593299,1.713552,1.725053,1.704802
2020-11-15 22:32:48.412,1.593924,1.703552,1.723678,1.705427
2020-11-15 22:32:48.429,1.594049,1.706927,1.715427,1.704427
2020-11-15 22:32:48.446,1.596924,1.710177,1.716427,1.704302
2020-11-15 22:32:48.463,1.595174,1.719927,1.717052,1.702927
2020-11-15 22:32:48.481,1.595049,1.718802,1.719177,1.704302
2020-11-15 22:32:48.498,1.593924,1.715552,1.728178,1.704302
2020-11-15 22:32:48.515,1.594174,1.712302,1.724553,1.704802
2020-11-15 22:32:48.532,1.593924,1.703177,1.723553,1.705552
2020-11-15 22:32:48.549,1.593174,1.707052,1.718427,1.705302
2020-11-15 22:32:48.566,1.597174,1.709302,1.716677,1.704677
2020-11-15 22:32:48.583,1.595424,1.716302,1.717802,1.702802
2020-11-15 22:32:48.600,1.595174,1.716802,1.722303,1.703927
2020-11-15 22:32:48.617,1.595424,1.715302,1.730553,1.703927
2020-11-15 22:32:48.634,1.593924,1.711552,1.724178,1.705552
2020-11-15 22:32:48.651,1.593674,1.701927,1.722428,1.705177
2020-11-15 22:32:48.668,1.594049,1.708427,1.712802,1.704927
2020-11-15 22:32:48.685,1.595799,1.712052,1.716802,1.704177
2020-11-15 22:32:48.702,1.594424,1.721053,1.717677,1.704302
