Datetime,chan0,chan1,chan2,chan3
2020-11-15 22:42:15.268,1.559673,1.693552,1.695302,1.689052
2020-11-15 22:42:15.285,1.556798,1.699177,1.701302,1.686926
2020-11-15 22:42:15.302,1.556673,1.703177,1.703552,1.688052
2020-11-15 22:42:15.320,1.559173,1.699552,1.712552,1.687927
2020-11-15 22:42:15.337,1.557173,1.696802,1.708677,1.688427
2020-11-15 22:42:15.354,1.558423,1.687802,1.708302,1.690177
2020-11-15 22:42:15.371,1.556798,1.692177,1.698802,1.689302
2020-11-15 22:42:15.388,1.559923,1.693927,1.701427,1.687927
2020-11-15 22:42:15.405,1.561548,1.700927,1.702677,1.686676
2020-11-15 22:42:15.422,1.557048,1.701177,1.707302,1.687802
2020-11-15 22:42:15.439,1.558673,1.699427,1.715177,1.687551
2020-11-15 22:42:15.456,1.557423,1.695927,1.709552,1.689427
2020-11-15 22:42:15.473,1.557673,1.686926,1.706802,1.688677
2020-11-15 22:42:15.490,1.557673,1.692552,1.697677,1.688427
2020-11-15 22:42:15.507,1.559798,1.693177,1.701177,1.687301
2020-11-15 22:42:15.524,1.558548,1.702302,1.703177,1.686551
2020-11-15 22:42:15.541,1.558048,1.700052,1.708302,1.687176
2020-11-15 22:42:15.558,1.558673,1.699052,1.712927,1.689177
2020-11-15 22:42:15.575,1.557423,1.690302,1.708802,1.690677
2020-11-15 22:42:15.592,1.556923,1.685676,1.708427,1.689302
2020-11-15 22:42:15.610,1.558048,1.693052,1.700927,1.688802
2020-11-15 22:42:15.628,1.560173,1.694802,1.700677,1.688927
2020-11-15 22:42:15.645,1.558048,1.704052,1.702677,1.687176
2020-11-15 22:42:15.662,1.559298,1.700677,1.705552,1.687927
2020-11-15 22:42:15.679,1.559423,1.699677,1.715427,1.688427
2020-11-15 22:42:15.696,1.558548,1.694177,1.708802,1.689677
2020-11-15 22:42:15.713,1.558298,1.688427,1.707552,1.688427
2020-11-15 22:42:15.730,1.557923,1.692552,1.698552,1.688427
2020-11-15 22:42:15.747,1.560173,1.694927,1.700927,1.687677
2020-11-15 22:42:15.764,1.558173,1.705052,1.701927,1.686926
2020-11-15 22:42:15.781,1.557423,1.700302,1.712302,1.687677
2020-11-15 22:42:15.798,1.559173,1.699552,1.709677,1.688177
2020-11-15 22:42:15.815,1.558423,1.692677,1.708677,1.690427
2020-11-15 22:42:15.832,1.558423,1.689802,1.704302,1.688802
2020-11-15 22:42:15.849,1.560048,1.692927,1.695802,1.688927
2020-11-15 22:42:15.866,1.559048,1.696427,1.702427,1.687426
2020-11-15 22:42:15.883,1.558798,1.704052,1.703677,1.687301
2020-11-15 22:42:15.900,1.558173,1.700052,1.712927,1.687677
2020-11-15 22:42:15.917,1.559423,1.698802,1.709552,1.687551
2020-11-15 22:42:15.934,1.557923,1.691177,1.708302,1.689302
2020-11-15 22:42:15.951,1.558298,1.691302,1.703552,1.687927
2020-11-15 22:42:15.968,1.559048,1.692552,1.697427,1.688302
2020-11-15 22:42:15.985,1.557798,1.701427,1.702427,1.686551
2020-11-15 22:42:16.002,1.557173,1.701052,1.704677,1.687927
2020-11-15 22:42:16.019,1.558798,1.699927,1.714052,1.687551
2020-11-15 22:42:16.036,1.560048,1.696177,1.709552,1.689302
2020-11-15 22:42:16.053,1.556923,1.687301,1.708802,1.689052
2020-11-15 22:42:16.070,1.556798,1.693052,1.702052,1.689177
2020-11-15 22:42:16.088,1.559673,1.694302,1.698552,1.688177
2020-11-15 22:42:16.105,1.559673,1.703552,1.701802,1.686926
2020-11-15 22:42:16.122,1.559423,1.701427,1.704802,1.687551
2020-11-15 22:42:16.139,1.559048,1.699677,1.714427,1.687426
2020-11-15 22:42:16.156,1.557923,1.695302,1.708677,1.689552
2020-11-15 22:42:16.173,1.557798,1.687051,1.706052,1.688802
2020-11-15 22:42:16.190,1.559173,1.693177,1.696177,1.688177
2020-11-15 22:42:16.207,1.559548,1.694177,1.701927,1.687802
2020-11-15 22:42:16.224,1.557923,1.704177,1.702927,1.687551
2020-11-15 22:42:16.241,1.558673,1.700052,1.710552,1.687802
2020-11-15 22:42:16.258,1.559423,1.698677,1.710677,1.687927
2020-11-15 22:42:16.275,1.559423,1.693802,1.708552,1.689427
2020-11-15 22:42:16.292,1.558173,1.688177,1.705177,1.688552
2020-11-15 22:42:16.309,1.558673,1.692427,1.695927,1.688427
2020-11-15 22:42:16.326,1.558923,1.699052,1.701677,1.687802
2020-11-15 22:42:16.343,1.558423,1.703927,1.703927,1.687927
2020-11-15 22:42:16.360,1.559548,1.699802,1.712677,1.687677
2020-11-15 22:42:16.377,1.559173,1.696677,1.709552,1.688052
2020-11-15 22:42:16.394,1.559048,1.688052,1.708802,1.689677
2020-11-15 22:42:16.411,1.557798,1.692427,1.704052,1.688052
2020-11-15 22:42:16.429,1.559298,1.692677,1.697552,1.688552
2020-11-15 22:42:16.446,1.559798,1.697052,1.700802,1.687551
2020-11-15 22:42:16.463,1.558048,1.705677,1.703052,1.688677
2020-11-15 22:42:16.480,1.557798,1.699802,1.708302,1.688427
2020-11-15 22:42:16.497,1.558923,1.699427,1.712427,1.688427
2020-11-15 22:42:16.514,1.558423,1.690052,1.708927,1.689927
2020-11-15 22:42:16.531,1.556297,1.692927,1.702927,1.688927
2020-11-15 22:42:16.549,1.559048,1.692927,1.697802,1.688927
2020-11-15 22:42:16.566,1.558048,1.697302,1.702302,1.687051
2020-11-15 22:42:16.583,1.557923,1.706927,1.705552,1.687176
2020-11-15 22:42:16.600,1.558173,1.699802,1.713927,1.687927
2020-11-15 22:42:16.617,1.559798,1.697677,1.709552,1.688052
2020-11-15 22:42:16.634,1.557173,1.688677,1.707927,1.688927
2020-11-15 22:42:16.651,1.558048,1.691677,1.701177,1.688177
2020-11-15 22:42:16.668,1.560548,1.692677,1.699802,1.688052
2020-11-15 22:42:16.685,1.557923,1.703677,1.702802,1.687176
2020-11-15 22:42:16.702,1.558048,1.701552,1.706427,1.688052
2020-11-15 22:42:16.719,1.558673,1.700177,1.715177,1.688177
2020-11-15 22:42:16.736,1.558173,1.695177,1.709302,1.689302
2020-11-15 22:42:16.753,1.557173,1.687426,1.707927,1.688927
2020-11-15 22:42:16.770,1.557923,1.692052,1.698802,1.688802
2020-11-15 22:42:16.787,1.561548,1.693427,1.701677,1.688427
2020-11-15 22:42:16.804,1.557923,1.704677,1.702927,1.687051
2020-11-15 22:42:16.821,1.559048,1.700552,1.706552,1.687176
2020-11-15 22:42:16.838,1.559048,1.699552,1.715552,1.687927
2020-11-15 22:42:16.855,1.558923,1.693552,1.708802,1.689927
2020-11-15 22:42:16.873,1.557423,1.689552,1.707302,1.688677
2020-11-15 22:42:16.890,1.559798,1.693052,1.698052,1.688927
2020-11-15 22:42:16.907,1.560298,1.696802,1.701427,1.687802
2020-11-15 22:42:16.924,1.557798,1.704927,1.701802,1.687802
2020-11-15 22:42:16.941,1.558798,1.701052,1.707177,1.688052
2020-11-15 22:42:16.958,1.559673,1.699927,1.713052,1.688177
2020-11-15 22:42:16.975,1.556548,1.691552,1.708552,1.690177
2020-11-15 22:42:16.992,1.557548,1.692052,1.703427,1.688677
2020-11-15 22:42:17.009,1.559048,1.692927,1.696927,1.689177
2020-11-15 22:42:17.026,1.557798,1.696802,1.702677,1.687051
2020-11-15 22:42:17.043,1.558048,1.705927,1.704677,1.687176
2020-11-15 22:42:17.060,1.559048,1.700052,1.714052,1.687551
2020-11-15 22:42:17.077,1.558298,1.698302,1.710302,1.687927
2020-11-15 22:42:17.094,1.558798,1.689052,1.708677,1.689552
2020-11-15 22:42:17.111,1.557673,1.691802,1.702427,1.687927
2020-11-15 22:42:17.128,1.559298,1.692677,1.698802,1.688052
2020-11-15 22:42:17.145,1.559798,1.703677,1.702927,1.687176
2020-11-15 22:42:17.162,1.557798,1.700552,1.705677,1.687677
2020-11-15 22:42:17.179,1.558173,1.699302,1.715052,1.688302
2020-11-15 22:42:17.196,1.558673,1.694927,1.709177,1.689927
2020-11-15 22:42:17.213,1.558423,1.687802,1.707927,1.688677
2020-11-15 22:42:17.230,1.554922,1.693427,1.699927,1.688927
2020-11-15 22:42:17.247,1.559048,1.692552,1.696177,1.688052
2020-11-15 22:42:17.266,1.559673,1.699552,1.702052,1.687051
2020-11-15 22:42:17.283,1.558173,1.704302,1.703677,1.687802
2020-11-15 22:42:17.300,1.557423,1.700052,1.712427,1.688052
2020-11-15 22:42:17.317,1.561173,1.696552,1.709552,1.688927
2020-11-15 22:42:17.334,1.557298,1.688427,1.708052,1.689677
2020-11-15 22:42:17.351,1.557423,1.692302,1.703302,1.688927
2020-11-15 22:42:17.368,1.558923,1.693552,1.701302,1.688302
2020-11-15 22:42:17.385,1.559548,1.701052,1.702427,1.687176
2020-11-15 22:42:17.402,1.558048,1.701177,1.707677,1.687927
2020-11-15 22:42:17.419,1.558673,1.699552,1.714927,1.687677
2020-11-15 22:42:17.436,1.558048,1.696052,1.709677,1.689677
2020-11-15 22:42:17.453,1.559923,1.686551,1.706677,1.688802
2020-11-15 22:42:17.470,1.559173,1.692677,1.697552,1.688802
2020-11-15 22:42:17.487,1.560923,1.693427,1.701177,1.688177
2020-11-15 22:42:17.504,1.558423,1.702552,1.703427,1.686551
2020-11-15 22:42:17.521,1.558673,1.700052,1.709052,1.687301
2020-11-15 22:42:17.538,1.559048,1.699802,1.713177,1.688177
2020-11-15 22:42:17.555,1.558548,1.690177,1.708677,1.690927
2020-11-15 22:42:17.572,1.557798,1.691927,1.706052,1.689302
2020-11-15 22:42:17.589,1.558673,1.693552,1.697052,1.688427
2020-11-15 22:42:17.606,1.558798,1.697677,1.700927,1.687426
2020-11-15 22:42:17.623,1.556923,1.707052,1.702427,1.687802
2020-11-15 22:42:17.640,1.558923,1.699677,1.710052,1.687426
2020-11-15 22:42:17.657,1.559173,1.698177,1.710052,1.688427
2020-11-15 22:42:17.674,1.558423,1.688927,1.707802,1.689677
2020-11-15 22:42:17.691,1.558673,1.691802,1.704677,1.689302
2020-11-15 22:42:17.708,1.558423,1.693427,1.695302,1.688927
2020-11-15 22:42:17.725,1.560048,1.698927,1.702552,1.687426
2020-11-15 22:42:17.742,1.558923,1.704427,1.705927,1.686926
2020-11-15 22:42:17.759,1.558798,1.699552,1.716052,1.687802
2020-11-15 22:42:17.776,1.557923,1.696677,1.709302,1.688552
2020-11-15 22:42:17.793,1.558423,1.687677,1.707927,1.689677
2020-11-15 22:42:17.810,1.557673,1.692302,1.698927,1.688552
2020-11-15 22:42:17.828,1.559798,1.693302,1.702177,1.687802
2020-11-15 22:42:17.845,1.558673,1.699427,1.702177,1.686801
2020-11-15 22:42:17.862,1.559923,1.702052,1.707177,1.687176
2020-11-15 22:42:17.879,1.559298,1.699427,1.715677,1.688177
2020-11-15 22:42:17.896,1.557048,1.692677,1.708427,1.689927
2020-11-15 22:42:17.913,1.558048,1.689927,1.707302,1.688427
2020-11-15 22:42:17.930,1.558798,1.692802,1.697677,1.689052
2020-11-15 22:42:17.947,1.559173,1.696427,1.701302,1.687551
2020-11-15 22:42:17.964,1.558923,1.705302,1.702302,1.687802
2020-11-15 22:42:17.981,1.558673,1.699802,1.707927,1.688302
2020-11-15 22:42:17.998,1.561048,1.699802,1.713302,1.688427
2020-11-15 22:42:18.015,1.559923,1.691052,1.708302,1.690177
2020-11-15 22:42:18.032,1.557048,1.691427,1.702927,1.689552
2020-11-15 22:42:18.049,1.559673,1.693302,1.697802,1.689052
2020-11-15 22:42:18.066,1.560548,1.697177,1.702552,1.687426
2020-11-15 22:42:18.084,1.557798,1.703302,1.702677,1.687426
2020-11-15 22:42:18.101,1.560173,1.700552,1.709802,1.687927
2020-11-15 22:42:18.118,1.559548,1.699427,1.711302,1.688177
2020-11-15 22:42:18.135,1.558548,1.693552,1.708802,1.689677
2020-11-15 22:42:18.152,1.558923,1.687677,1.706052,1.688302
2020-11-15 22:42:18.169,1.559298,1.692677,1.696177,1.688802
2020-11-15 22:42:18.186,1.559048,1.695052,1.701427,1.687176
2020-11-15 22:42:18.203,1.559673,1.703677,1.702802,1.686551
2020-11-15 22:42:18.220,1.558923,1.700177,1.712052,1.687176
2020-11-15 22:42:18.237,1.559423,1.697802,1.710802,1.689302
2020-11-15 22:42:18.254,1.557798,1.688052,1.709177,1.689552
2020-11-15 22:42:18.271,1.559173,1.692552,1.705052,1.688427
2020-11-15 22:42:18.289,1.559673,1.693677,1.696052,1.688552
2020-11-15 22:42:18.306,1.559923,1.700177,1.701677,1.687551
2020-11-15 22:42:18.323,1.558923,1.703302,1.702927,1.687551
2020-11-15 22:42:18.340,1.558048,1.700427,1.713052,1.687677
2020-11-15 22:42:18.357,1.558673,1.696677,1.709302,1.689552
2020-11-15 22:42:18.374,1.559173,1.688302,1.708677,1.689302
2020-11-15 22:42:18.391,1.559298,1.692302,1.698802,1.687927
2020-11-15 22:42:18.408,1.560423,1.693177,1.701177,1.688427
2020-11-15 22:42:18.425,1.558923,1.701177,1.702177,1.687051
2020-11-15 22:42:18.442,1.558673,1.700927,1.708427,1.687301
2020-11-15 22:42:18.459,1.559298,1.699677,1.714302,1.688052
2020-11-15 22:42:18.476,1.557048,1.695552,1.708677,1.689177
2020-11-15 22:42:18.493,1.558798,1.686426,1.706552,1.688302
2020-11-15 22:42:18.510,1.559798,1.692302,1.697927,1.687927
2020-11-15 22:42:18.527,1.559048,1.693427,1.702052,1.688052
2020-11-15 22:42:18.544,1.559298,1.702677,1.702427,1.687802
2020-11-15 22:42:18.561,1.558798,1.699927,1.708677,1.688302
2020-11-15 22:42:18.578,1.560423,1.698677,1.712427,1.689302
2020-11-15 22:42:18.595,1.559298,1.689927,1.708677,1.690052
2020-11-15 22:42:18.612,1.558048,1.692177,1.705802,1.688677
2020-11-15 22:42:18.629,1.559548,1.693302,1.695677,1.688427
2020-11-15 22:42:18.646,1.559923,1.697927,1.700802,1.687176
2020-11-15 22:42:18.663,1.559923,1.706677,1.701927,1.687551
2020-11-15 22:42:18.680,1.558798,1.699927,1.710302,1.686926
2020-11-15 22:42:18.697,1.560548,1.697802,1.709802,1.688927
2020-11-15 22:42:18.714,1.558423,1.689052,1.708177,1.689802
2020-11-15 22:42:18.731,1.558173,1.691427,1.700302,1.688552
2020-11-15 22:42:18.748,1.562673,1.692927,1.700427,1.688052
2020-11-15 22:42:18.765,1.560173,1.698927,1.703177,1.686676
2020-11-15 22:42:18.782,1.559923,1.703302,1.706302,1.687677
2020-11-15 22:42:18.799,1.559298,1.699427,1.715552,1.688052
2020-11-15 22:42:18.816,1.558673,1.697052,1.709302,1.688052
2020-11-15 22:42:18.833,1.557923,1.687301,1.707177,1.689177
2020-11-15 22:42:18.850,1.559423,1.691427,1.698677,1.688052
2020-11-15 22:42:18.867,1.562798,1.695802,1.701052,1.688427
2020-11-15 22:42:18.884,1.559298,1.704677,1.702552,1.687176
2020-11-15 22:42:18.901,1.559798,1.701177,1.703802,1.687927
2020-11-15 22:42:18.920,1.560173,1.699802,1.713427,1.687927
2020-11-15 22:42:18.937,1.558423,1.696302,1.709802,1.689427
2020-11-15 22:42:18.954,1.558048,1.687176,1.707927,1.688802
2020-11-15 22:42:18.971,1.558798,1.692427,1.702052,1.688802
2020-11-15 22:42:18.988,1.559923,1.693677,1.697302,1.688552
2020-11-15 22:42:19.005,1.558673,1.702927,1.701927,1.686551
2020-11-15 22:42:19.022,1.564673,1.700802,1.705177,1.687677
2020-11-15 22:42:19.039,1.559923,1.699927,1.713552,1.688052
2020-11-15 22:42:19.056,1.558298,1.695927,1.709677,1.689302
2020-11-15 22:42:19.073,1.558173,1.687051,1.708302,1.688427
2020-11-15 22:42:19.091,1.559173,1.693052,1.700802,1.688927
2020-11-15 22:42:19.108,1.559923,1.694302,1.700052,1.688052
2020-11-15 22:42:19.125,1.559798,1.703802,1.701802,1.687551
2020-11-15 22:42:19.142,1.559173,1.700052,1.706177,1.687677
2020-11-15 22:42:19.159,1.557173,1.699927,1.715177,1.687927
2020-11-15 22:42:19.176,1.560173,1.694302,1.709052,1.689552
2020-11-15 22:42:19.193,1.558423,1.689177,1.707177,1.689177
2020-11-15 22:42:19.210,1.558798,1.692927,1.697677,1.688927
2020-11-15 22:42:19.227,1.561173,1.695427,1.701927,1.688177
2020-11-15 22:42:19.244,1.559048,1.704427,1.703802,1.687426
2020-11-15 22:42:19.261,1.559423,1.700677,1.712427,1.688052
2020-11-15 22:42:19.278,1.561048,1.699177,1.709927,1.687927
2020-11-15 22:42:19.295,1.557548,1.692802,1.709177,1.689552
2020-11-15 22:42:19.312,1.559298,1.690177,1.704552,1.688177
2020-11-15 22:42:19.329,1.561548,1.693177,1.695677,1.688552
2020-11-15 22:42:19.346,1.559423,1.695802,1.702677,1.686801
2020-11-15 22:42:19.363,1.559423,1.702677,1.704677,1.687927
2020-11-15 22:42:19.380,1.558048,1.700177,1.713927,1.687677
2020-11-15 22:42:19.397,1.559548,1.696427,1.709927,1.689552
2020-11-15 22:42:19.414,1.558548,1.687802,1.708552,1.689177
2020-11-15 22:42:19.431,1.558673,1.692552,1.703052,1.689177
2020-11-15 22:42:19.448,1.563548,1.693177,1.697677,1.688302
2020-11-15 22:42:19.465,1.559173,1.702302,1.702302,1.686801
2020-11-15 22:42:19.482,1.560048,1.700302,1.704302,1.687426
2020-11-15 22:42:19.499,1.557923,1.699677,1.713177,1.687551
2020-11-15 22:42:19.516,1.559923,1.695677,1.709302,1.689552
2020-11-15 22:42:19.533,1.559298,1.686926,1.706177,1.688427
2020-11-15 22:42:19.550,1.559173,1.692552,1.696677,1.688677
2020-11-15 22:42:19.567,1.560673,1.694927,1.699177,1.688552
2020-11-15 22:42:19.585,1.559298,1.703427,1.702177,1.687301
2020-11-15 22:42:19.602,1.559673,1.700552,1.709552,1.687927
2020-11-15 22:42:19.619,1.562173,1.699927,1.711927,1.687802
2020-11-15 22:42:19.636,1.559298,1.695052,1.709177,1.689552
2020-11-15 22:42:19.653,1.558548,1.688302,1.705052,1.688677
2020-11-15 22:42:19.670,1.559673,1.692552,1.696927,1.688177
2020-11-15 22:42:19.687,1.559048,1.694552,1.702052,1.686676
2020-11-15 22:42:19.704,1.559423,1.704427,1.702427,1.686926
2020-11-15 22:42:19.721,1.559798,1.699927,1.711302,1.686426
2020-11-15 22:42:19.739,1.559798,1.699552,1.715677,1.687051
2020-11-15 22:42:19.756,1.558798,1.696802,1.709802,1.688302
2020-11-15 22:42:19.773,1.558673,1.687176,1.707177,1.687677
2020-11-15 22:42:19.790,1.558298,1.691302,1.698427,1.688552
2020-11-15 22:42:19.807,1.562298,1.695927,1.701177,1.687802
2020-11-15 22:42:19.824,1.557173,1.704927,1.702177,1.687176
2020-11-15 22:42:19.841,1.559923,1.700677,1.706927,1.687551
2020-11-15 22:42:19.858,1.559798,1.699177,1.713677,1.688427
2020-11-15 22:42:19.875,1.558423,1.691677,1.709052,1.689677
2020-11-15 22:42:19.892,1.560298,1.692302,1.706427,1.688677
2020-11-15 22:42:19.909,1.557923,1.692927,1.696427,1.688552
2020-11-15 22:42:19.926,1.561173,1.697177,1.702552,1.687301
2020-11-15 22:42:19.943,1.559548,1.706177,1.704177,1.687426
2020-11-15 22:42:19.960,1.559548,1.699552,1.714177,1.687677
2020-11-15 22:42:19.978,1.561423,1.698302,1.710052,1.688552
2020-11-15 22:42:19.995,1.559923,1.689427,1.708427,1.690177
2020-11-15 22:42:20.012,1.559173,1.692052,1.702302,1.688802
2020-11-15 22:42:20.029,1.562548,1.692927,1.698802,1.687802
2020-11-15 22:42:20.046,1.557173,1.697427,1.702302,1.686926
2020-11-15 22:42:20.063,1.559548,1.705427,1.705302,1.687802
2020-11-15 22:42:20.080,1.560173,1.698427,1.715052,1.686926
2020-11-15 22:42:20.097,1.559048,1.697552,1.709427,1.688427
2020-11-15 22:42:20.114,1.561048,1.688302,1.708177,1.688677
2020-11-15 22:42:20.131,1.560298,1.692927,1.700677,1.688552
2020-11-15 22:42:20.148,1.561673,1.695052,1.700552,1.687927
2020-11-15 22:42:20.165,1.559173,1.703927,1.702302,1.686926
2020-11-15 22:42:20.182,1.558423,1.700677,1.705802,1.687301
2020-11-15 22:42:20.199,1.560173,1.699552,1.715677,1.687677
2020-11-15 22:42:20.216,1.562423,1.693677,1.708427,1.689552
2020-11-15 22:42:20.233,1.559298,1.688802,1.707052,1.689427
2020-11-15 22:42:20.250,1.559798,1.692677,1.698302,1.688427
2020-11-15 22:42:20.267,1.562048,1.695427,1.700427,1.687677
2020-11-15 22:42:20.284,1.559798,1.704802,1.703302,1.687301
2020-11-15 22:42:20.301,1.559548,1.700052,1.712677,1.687802
2020-11-15 22:42:20.318,1.558798,1.699302,1.709677,1.688677
2020-11-15 22:42:20.335,1.561173,1.692177,1.708802,1.689677
2020-11-15 22:42:20.352,1.558423,1.690677,1.703927,1.688052
2020-11-15 22:42:20.369,1.560923,1.693552,1.696052,1.687927
2020-11-15 22:42:20.386,1.558673,1.696427,1.702177,1.686926
2020-11-15 22:42:20.403,1.560048,1.705927,1.704427,1.687802
2020-11-15 22:42:20.420,1.559798,1.699927,1.713427,1.687176
2020-11-15 22:42:20.438,1.557173,1.698552,1.709927,1.687927
2020-11-15 22:42:20.455,1.558173,1.689927,1.708552,1.689302
2020-11-15 22:42:20.472,1.558423,1.691427,1.702677,1.688052
2020-11-15 22:42:20.489,1.559173,1.693177,1.697927,1.688802
2020-11-15 22:42:20.506,1.561923,1.696677,1.701927,1.686426
2020-11-15 22:42:20.523,1.558548,1.700302,1.704927,1.687301
2020-11-15 22:42:20.540,1.559548,1.699552,1.713802,1.687802
2020-11-15 22:42:20.557,1.558548,1.697302,1.710927,1.688802
2020-11-15 22:42:20.575,1.559548,1.689677,1.709177,1.690177
2020-11-15 22:42:20.592,1.560298,1.692552,1.705302,1.688802
2020-11-15 22:42:20.609,1.559173,1.693177,1.695802,1.688677
2020-11-15 22:42:20.626,1.559673,1.698677,1.701677,1.687176
2020-11-15 22:42:20.643,1.560048,1.704677,1.702802,1.687301
2020-11-15 22:42:20.660,1.557673,1.699552,1.711802,1.687426
2020-11-15 22:42:20.677,1.558798,1.697052,1.709177,1.688802
2020-11-15 22:42:20.694,1.559423,1.688052,1.708302,1.689927
2020-11-15 22:42:20.711,1.559923,1.692177,1.703802,1.688552
2020-11-15 22:42:20.729,1.559173,1.693427,1.694927,1.688302
2020-11-15 22:42:20.746,1.559673,1.700302,1.702177,1.686801
2020-11-15 22:42:20.763,1.560173,1.702677,1.706677,1.687551
2020-11-15 22:42:20.780,1.559298,1.699927,1.715302,1.687802
2020-11-15 22:42:20.797,1.559173,1.696677,1.709177,1.689177
2020-11-15 22:42:20.814,1.559048,1.687301,1.707052,1.689302
2020-11-15 22:42:20.831,1.558548,1.692552,1.698677,1.688302
2020-11-15 22:42:20.848,1.563173,1.693552,1.700927,1.688302
2020-11-15 22:42:20.865,1.559798,1.702552,1.702552,1.686176
2020-11-15 22:42:20.882,1.560048,1.699927,1.707927,1.687677
2020-11-15 22:42:20.899,1.558548,1.699052,1.713552,1.686801
2020-11-15 22:42:20.916,1.557173,1.694927,1.708052,1.689427
2020-11-15 22:42:20.933,1.557798,1.686801,1.706302,1.689177
2020-11-15 22:42:20.950,1.561548,1.693177,1.696802,1.689427
2020-11-15 22:42:20.967,1.561548,1.697177,1.701552,1.687551
2020-11-15 22:42:20.984,1.563048,1.706302,1.702427,1.687551
2020-11-15 22:42:21.001,1.560673,1.699927,1.709677,1.687551
2020-11-15 22:42:21.018,1.560798,1.697677,1.710927,1.688552
2020-11-15 22:42:21.035,1.560673,1.689052,1.708552,1.690052
2020-11-15 22:42:21.052,1.557173,1.692177,1.705552,1.688802
2020-11-15 22:42:21.069,1.559423,1.693302,1.695302,1.688927
2020-11-15 22:42:21.086,1.561298,1.697677,1.701052,1.686926
2020-11-15 22:42:21.103,1.559298,1.705427,1.706427,1.687551
2020-11-15 22:42:21.120,1.555422,1.700052,1.715677,1.687802
2020-11-15 22:42:21.137,1.560923,1.697802,1.709552,1.688552
2020-11-15 22:42:21.154,1.558923,1.687551,1.708427,1.689552
2020-11-15 22:42:21.171,1.558423,1.692052,1.700052,1.688177
2020-11-15 22:42:21.188,1.561798,1.693302,1.700677,1.687802
2020-11-15 22:42:21.205,1.560048,1.699427,1.701927,1.686801
2020-11-15 22:42:21.222,1.558173,1.702927,1.706177,1.687927
2020-11-15 22:42:21.239,1.559548,1.699302,1.715552,1.687176
2020-11-15 22:42:21.256,1.559923,1.695802,1.708927,1.687551
2020-11-15 22:42:21.273,1.563048,1.687051,1.707177,1.688552
2020-11-15 22:42:21.290,1.558673,1.691927,1.698052,1.688802
2020-11-15 22:42:21.308,1.562048,1.695802,1.701552,1.687802
2020-11-15 22:42:21.325,1.559548,1.705427,1.702052,1.688177
2020-11-15 22:42:21.342,1.560548,1.700052,1.707177,1.687551
2020-11-15 22:42:21.359,1.560048,1.699177,1.714427,1.687426
2020-11-15 22:42:21.376,1.559673,1.695427,1.708427,1.688927
2020-11-15 22:42:21.394,1.559923,1.688802,1.708427,1.689427
2020-11-15 22:42:21.411,1.559923,1.692052,1.701427,1.687927
2020-11-15 22:42:21.429,1.563048,1.692427,1.699052,1.688052
2020-11-15 22:42:21.446,1.561423,1.697052,1.702052,1.687176
2020-11-15 22:42:21.463,1.564548,1.705052,1.705552,1.687426
2020-11-15 22:42:21.480,1.559673,1.699802,1.714802,1.687927
2020-11-15 22:42:21.497,1.557923,1.695177,1.709302,1.690052
2020-11-15 22:42:21.514,1.560923,1.687301,1.707677,1.688927
2020-11-15 22:42:21.531,1.557673,1.692802,1.699802,1.688552
2020-11-15 22:42:21.548,1.562048,1.695052,1.700552,1.687551
2020-11-15 22:42:21.565,1.561548,1.704552,1.701802,1.687176
2020-11-15 22:42:21.582,1.559423,1.700302,1.705302,1.687927
2020-11-15 22:42:21.599,1.560048,1.698552,1.714177,1.688302
2020-11-15 22:42:21.616,1.557548,1.694052,1.708677,1.689552
2020-11-15 22:42:21.633,1.559548,1.688552,1.706427,1.688802
2020-11-15 22:42:21.650,1.558423,1.692552,1.697427,1.688927
2020-11-15 22:42:21.667,1.561048,1.695927,1.702052,1.687677
2020-11-15 22:42:21.684,1.559798,1.704927,1.704052,1.687551
2020-11-15 22:42:21.701,1.559173,1.700177,1.712302,1.687301
2020-11-15 22:42:21.718,1.560423,1.699427,1.709177,1.687802
2020-11-15 22:42:21.735,1.560048,1.691427,1.708302,1.689552
2020-11-15 22:42:21.752,1.559548,1.690177,1.703802,1.688677
2020-11-15 22:42:21.769,1.561673,1.692552,1.696302,1.688302
2020-11-15 22:42:21.786,1.559423,1.695677,1.702302,1.687426
2020-11-15 22:42:21.803,1.559298,1.705052,1.704802,1.686926
2020-11-15 22:42:21.820,1.559423,1.699427,1.713677,1.687802
2020-11-15 22:42:21.837,1.559923,1.695802,1.709552,1.688677
2020-11-15 22:42:21.854,1.559423,1.687176,1.708052,1.688552
2020-11-15 22:42:21.871,1.559923,1.692802,1.702302,1.689427
2020-11-15 22:42:21.888,1.560298,1.693552,1.697677,1.688552
2020-11-15 22:42:21.905,1.560548,1.702052,1.701677,1.687176
2020-11-15 22:42:21.922,1.559423,1.700552,1.704427,1.687677
2020-11-15 22:42:21.939,1.560423,1.699052,1.713927,1.688052
2020-11-15 22:42:21.956,1.559673,1.695552,1.708552,1.689677
2020-11-15 22:42:21.973,1.558173,1.686676,1.706052,1.688552
2020-11-15 22:42:21.990,1.560673,1.692677,1.696927,1.688677
2020-11-15 22:42:22.008,1.560423,1.695052,1.701427,1.687677
2020-11-15 22:42:22.025,1.559548,1.703677,1.702052,1.686551
2020-11-15 22:42:22.042,1.558798,1.699552,1.709427,1.687301
2020-11-15 22:42:22.059,1.560548,1.699177,1.710677,1.687677
2020-11-15 22:42:22.076,1.560173,1.693927,1.708427,1.689052
2020-11-15 22:42:22.093,1.558798,1.687551,1.705052,1.688177
2020-11-15 22:42:22.110,1.560298,1.692552,1.695552,1.688427
2020-11-15 22:42:22.127,1.560798,1.698177,1.702052,1.687802
2020-11-15 22:42:22.144,1.559798,1.704802,1.703177,1.687927
2020-11-15 22:42:22.161,1.560298,1.699927,1.712052,1.688177
2020-11-15 22:42:22.178,1.560423,1.697552,1.709427,1.688427
2020-11-15 22:42:22.195,1.559048,1.688052,1.708427,1.689052
2020-11-15 22:42:22.212,1.560173,1.690177,1.706552,1.688802
2020-11-15 22:42:22.230,1.559423,1.693052,1.697052,1.688927
2020-11-15 22:42:22.247,1.561173,1.696302,1.700302,1.687176
2020-11-15 22:42:22.264,1.558923,1.704927,1.702302,1.687051
2020-11-15 22:42:22.281,1.560548,1.700302,1.707427,1.687677
2020-11-15 22:42:22.298,1.559798,1.699052,1.713052,1.688177
2020-11-15 22:42:22.315,1.559048,1.690427,1.708052,1.689552
2020-11-15 22:42:22.332,1.558173,1.692052,1.703052,1.687927
2020-11-15 22:42:22.350,1.561923,1.693177,1.696552,1.688802
2020-11-15 22:42:22.367,1.560173,1.697427,1.700427,1.687551
2020-11-15 22:42:22.384,1.558548,1.706427,1.704927,1.688302
2020-11-15 22:42:22.401,1.559923,1.699427,1.714302,1.687551
2020-11-15 22:42:22.418,1.560298,1.698302,1.710052,1.688302
2020-11-15 22:42:22.435,1.559798,1.689177,1.708802,1.689802
2020-11-15 22:42:22.452,1.560173,1.691677,1.701177,1.688802
2020-11-15 22:42:22.469,1.559923,1.692802,1.699802,1.688552
2020-11-15 22:42:22.486,1.557923,1.697677,1.701927,1.687051
2020-11-15 22:42:22.503,1.561298,1.704427,1.705052,1.687176
2020-11-15 22:42:22.520,1.559548,1.699052,1.714927,1.687051
2020-11-15 22:42:22.537,1.559423,1.696927,1.709177,1.687802
2020-11-15 22:42:22.554,1.558173,1.688052,1.708177,1.689302
2020-11-15 22:42:22.571,1.559548,1.692552,1.698927,1.687802
2020-11-15 22:42:22.588,1.562923,1.695177,1.701177,1.688302
2020-11-15 22:42:22.605,1.560173,1.704302,1.702177,1.687426
2020-11-15 22:42:22.622,1.559298,1.700677,1.705427,1.688177
2020-11-15 22:42:22.639,1.557298,1.699302,1.715927,1.688177
2020-11-15 22:42:22.656,1.559048,1.692552,1.708552,1.688927
2020-11-15 22:42:22.673,1.560798,1.689677,1.706927,1.689052
2020-11-15 22:42:22.690,1.560923,1.692802,1.696802,1.688677
2020-11-15 22:42:22.707,1.561298,1.696052,1.700552,1.687677
2020-11-15 22:42:22.724,1.559048,1.705802,1.701927,1.687677
2020-11-15 22:42:22.741,1.559798,1.700427,1.706552,1.687551
2020-11-15 22:42:22.758,1.559548,1.699302,1.713302,1.687927
2020-11-15 22:42:22.775,1.559673,1.691677,1.708177,1.689802
2020-11-15 22:42:22.792,1.559673,1.691552,1.703302,1.688927
2020-11-15 22:42:22.809,1.560173,1.693177,1.696552,1.688302
2020-11-15 22:42:22.827,1.558423,1.696677,1.702177,1.687176
2020-11-15 22:42:22.844,1.560048,1.706052,1.704177,1.687802
2020-11-15 22:42:22.861,1.559548,1.699677,1.713927,1.687051
2020-11-15 22:42:22.878,1.560923,1.698177,1.710302,1.688052
2020-11-15 22:42:22.895,1.557423,1.689302,1.708427,1.689677
2020-11-15 22:42:22.912,1.559673,1.691427,1.701927,1.688552
2020-11-15 22:42:22.929,1.561798,1.694677,1.698802,1.688302
2020-11-15 22:42:22.946,1.558173,1.703177,1.701802,1.686926
2020-11-15 22:42:22.963,1.560048,1.700177,1.705427,1.687551
2020-11-15 22:42:22.980,1.559048,1.699677,1.714552,1.687677
2020-11-15 22:42:22.997,1.558798,1.694927,1.709052,1.689927
2020-11-15 22:42:23.014,1.557298,1.686426,1.708177,1.689177
2020-11-15 22:42:23.031,1.558673,1.693052,1.699052,1.688052
2020-11-15 22:42:23.049,1.560548,1.692927,1.694302,1.688302
2020-11-15 22:42:23.066,1.558673,1.699677,1.701552,1.687426
2020-11-15 22:42:23.083,1.559673,1.703302,1.702802,1.687802
2020-11-15 22:42:23.100,1.557923,1.699427,1.712177,1.687677
2020-11-15 22:42:23.117,1.560798,1.696552,1.708927,1.688677
2020-11-15 22:42:23.134,1.559673,1.687677,1.707302,1.688927
2020-11-15 22:42:23.151,1.560798,1.692052,1.698052,1.688177
2020-11-15 22:42:23.168,1.559048,1.693177,1.701052,1.687802
2020-11-15 22:42:23.185,1.562298,1.700552,1.702552,1.686301
2020-11-15 22:42:23.202,1.559298,1.700927,1.707052,1.687051
2020-11-15 22:42:23.219,1.560673,1.699052,1.714677,1.686926
2020-11-15 22:42:23.236,1.557423,1.695177,1.708677,1.690177
2020-11-15 22:42:23.253,1.561048,1.691302,1.706552,1.688677
2020-11-15 22:42:23.270,1.561798,1.692552,1.697427,1.688677
2020-11-15 22:42:23.288,1.562048,1.696927,1.701552,1.687301
2020-11-15 22:42:23.305,1.558673,1.705427,1.702677,1.687551
2020-11-15 22:42:23.322,1.559173,1.700052,1.708927,1.688052
2020-11-15 22:42:23.339,1.561673,1.698927,1.711677,1.688302
2020-11-15 22:42:23.356,1.554547,1.690177,1.708427,1.689552
2020-11-15 22:42:23.373,1.558423,1.691677,1.704677,1.688552
2020-11-15 22:42:23.390,1.559048,1.693677,1.695802,1.688052
2020-11-15 22:42:23.407,1.559798,1.697177,1.700927,1.688052
2020-11-15 22:42:23.424,1.560048,1.706052,1.705052,1.687051
2020-11-15 22:42:23.441,1.562673,1.699552,1.714927,1.688052
2020-11-15 22:42:23.458,1.558423,1.697677,1.709802,1.688552
2020-11-15 22:42:23.475,1.558798,1.688552,1.708427,1.689552
2020-11-15 22:42:23.492,1.562548,1.691427,1.699927,1.688427
2020-11-15 22:42:23.509,1.563798,1.692802,1.701177,1.687551
2020-11-15 22:42:23.526,1.562798,1.699302,1.701927,1.686801
2020-11-15 22:42:23.543,1.559798,1.702677,1.705302,1.686676
2020-11-15 22:42:23.560,1.561173,1.699552,1.715302,1.687927
2020-11-15 22:42:23.577,1.559798,1.696552,1.708927,1.688552
2020-11-15 22:42:23.594,1.560673,1.687301,1.707802,1.688552
2020-11-15 22:42:23.611,1.561048,1.691302,1.698552,1.688927
2020-11-15 22:42:23.628,1.561298,1.695177,1.701177,1.687677
2020-11-15 22:42:23.645,1.562798,1.704427,1.701802,1.688177
2020-11-15 22:42:23.662,1.562548,1.701427,1.706677,1.687176
2020-11-15 22:42:23.680,1.560423,1.699302,1.715052,1.687176
2020-11-15 22:42:23.697,1.563298,1.695677,1.708927,1.688677
2020-11-15 22:42:23.714,1.561798,1.686676,1.706927,1.688427
2020-11-15 22:42:23.731,1.560048,1.693552,1.697927,1.688927
2020-11-15 22:42:23.748,1.563173,1.696552,1.701177,1.687802
2020-11-15 22:42:23.765,1.561423,1.705677,1.702177,1.687677
2020-11-15 22:42:23.782,1.561298,1.700302,1.708177,1.687551
2020-11-15 22:42:23.799,1.562923,1.698802,1.712677,1.687802
2020-11-15 22:42:23.816,1.562423,1.690302,1.708552,1.689677
2020-11-15 22:42:23.833,1.559923,1.692052,1.705427,1.688927
2020-11-15 22:42:23.850,1.563298,1.692427,1.696552,1.688427
2020-11-15 22:42:23.867,1.562673,1.693552,1.700677,1.688052
2020-11-15 22:42:23.885,1.559423,1.703927,1.701677,1.687176
2020-11-15 22:42:23.902,1.559548,1.700427,1.705552,1.688177
2020-11-15 22:42:23.919,1.562048,1.699552,1.714427,1.688052
2020-11-15 22:42:23.936,1.559548,1.694052,1.708427,1.689802
2020-11-15 22:42:23.953,1.559423,1.688927,1.704552,1.688677
2020-11-15 22:42:23.970,1.564798,1.693552,1.695927,1.688552
2020-11-15 22:42:23.988,1.561423,1.695302,1.701927,1.688302
2020-11-15 22:42:24.005,1.561923,1.704427,1.702927,1.686801
2020-11-15 22:42:24.022,1.560548,1.700927,1.712677,1.687176
2020-11-15 22:42:24.039,1.562423,1.698927,1.709552,1.687927
2020-11-15 22:42:24.056,1.560923,1.692177,1.708677,1.689052
2020-11-15 22:42:24.073,1.561548,1.690302,1.703802,1.688052
2020-11-15 22:42:24.090,1.562798,1.691802,1.695927,1.688552
2020-11-15 22:42:24.107,1.561673,1.700302,1.702302,1.687301
2020-11-15 22:42:24.124,1.562173,1.701802,1.703427,1.687551
2020-11-15 22:42:24.141,1.559798,1.699802,1.712802,1.688177
2020-11-15 22:42:24.158,1.561798,1.696552,1.709302,1.688927
2020-11-15 22:42:24.175,1.559923,1.686426,1.708302,1.689677
2020-11-15 22:42:24.192,1.561298,1.692802,1.702302,1.688427
2020-11-15 22:42:24.209,1.561548,1.693677,1.697802,1.687927
2020-11-15 22:42:24.226,1.559673,1.702302,1.701427,1.686051
2020-11-15 22:42:24.243,1.561923,1.700552,1.704052,1.688302
2020-11-15 22:42:24.260,1.562048,1.699302,1.713427,1.687927
2020-11-15 22:42:24.277,1.561798,1.695177,1.709302,1.688927
2020-11-15 22:42:24.294,1.559423,1.686926,1.705927,1.688552
2020-11-15 22:42:24.311,1.564423,1.692802,1.696677,1.688177
2020-11-15 22:42:24.328,1.562673,1.694052,1.700927,1.687802
2020-11-15 22:42:24.345,1.562548,1.703927,1.702552,1.686676
2020-11-15 22:42:24.362,1.560298,1.700302,1.709677,1.687301
2020-11-15 22:42:24.379,1.562173,1.699052,1.710927,1.687677
2020-11-15 22:42:24.396,1.559298,1.693677,1.709052,1.689177
2020-11-15 22:42:24.413,1.561173,1.687677,1.704927,1.688677
2020-11-15 22:42:24.430,1.563923,1.692302,1.696177,1.688177
2020-11-15 22:42:24.447,1.561798,1.694802,1.702177,1.687802
2020-11-15 22:42:24.464,1.562173,1.704802,1.702802,1.687927
2020-11-15 22:42:24.481,1.560298,1.699552,1.712177,1.687677
2020-11-15 22:42:24.498,1.563173,1.697302,1.709677,1.688552
2020-11-15 22:42:24.515,1.559423,1.688552,1.707677,1.689927
2020-11-15 22:42:24.532,1.560423,1.692177,1.704927,1.688302
2020-11-15 22:42:24.549,1.562923,1.693677,1.695927,1.688177
2020-11-15 22:42:24.566,1.563173,1.700052,1.701427,1.687051
2020-11-15 22:42:24.584,1.560548,1.703177,1.702427,1.687301
2020-11-15 22:42:24.601,1.561173,1.699552,1.712802,1.687426
2020-11-15 22:42:24.618,1.561298,1.696802,1.709052,1.688927
2020-11-15 22:42:24.635,1.560048,1.687551,1.707927,1.688927
2020-11-15 22:42:24.652,1.561548,1.692802,1.697927,1.688552
2020-11-15 22:42:24.669,1.562923,1.692552,1.700677,1.688427
2020-11-15 22:42:24.686,1.562423,1.701927,1.702177,1.686926
2020-11-15 22:42:24.704,1.562423,1.706177,1.704552,1.687426
2020-11-15 22:42:24.721,1.562173,1.700052,1.714427,1.687802
2020-11-15 22:42:24.738,1.561923,1.698677,1.709552,1.687802
2020-11-15 22:42:24.755,1.560798,1.689052,1.708427,1.689677
2020-11-15 22:42:24.772,1.559423,1.692177,1.701927,1.687677
2020-11-15 22:42:24.789,1.563298,1.692677,1.699677,1.687802
2020-11-15 22:42:24.806,1.562548,1.697552,1.702177,1.686801
2020-11-15 22:42:24.823,1.561548,1.704302,1.705302,1.687802
2020-11-15 22:42:24.840,1.561423,1.699927,1.715052,1.687927
2020-11-15 22:42:24.857,1.561173,1.694302,1.709302,1.689677
2020-11-15 22:42:24.874,1.562298,1.688052,1.707927,1.688927
2020-11-15 22:42:24.891,1.561423,1.692927,1.699927,1.688427
2020-11-15 22:42:24.908,1.565298,1.695552,1.700927,1.687677
2020-11-15 22:42:24.925,1.561673,1.704177,1.702302,1.686926
2020-11-15 22:42:24.942,1.561673,1.700802,1.705677,1.687927
2020-11-15 22:42:24.960,1.562673,1.699177,1.715552,1.687802
2020-11-15 22:42:24.977,1.560548,1.693302,1.707927,1.689927
2020-11-15 22:42:24.994,1.562048,1.689552,1.706427,1.689302
2020-11-15 22:42:25.011,1.560423,1.692552,1.695677,1.688927
2020-11-15 22:42:25.028,1.562173,1.695802,1.702427,1.687927
2020-11-15 22:42:25.045,1.562548,1.705427,1.704052,1.687176
2020-11-15 22:42:25.062,1.562048,1.699552,1.713052,1.687551
2020-11-15 22:42:25.079,1.562423,1.698927,1.710302,1.688802
2020-11-15 22:42:25.096,1.561423,1.690927,1.708927,1.689552
2020-11-15 22:42:25.113,1.561423,1.691427,1.703302,1.688427
2020-11-15 22:42:25.130,1.563923,1.692802,1.697052,1.688052
2020-11-15 22:42:25.147,1.561548,1.696427,1.702427,1.686676
2020-11-15 22:42:25.164,1.561423,1.706302,1.704802,1.687802
2020-11-15 22:42:25.181,1.562048,1.699927,1.713927,1.688177
2020-11-15 22:42:25.198,1.562298,1.695802,1.709802,1.689427
2020-11-15 22:42:25.215,1.561923,1.687051,1.708677,1.689177
2020-11-15 22:42:25.232,1.558923,1.693302,1.701302,1.688677
2020-11-15 22:42:25.249,1.564923,1.694552,1.698802,1.688302
2020-11-15 22:42:25.266,1.562173,1.703677,1.702052,1.687176
2020-11-15 22:42:25.283,1.560798,1.700052,1.704802,1.687301
2020-11-15 22:42:25.300,1.561673,1.699427,1.714552,1.687551
2020-11-15 22:42:25.317,1.561923,1.695552,1.709052,1.690052
2020-11-15 22:42:25.334,1.560548,1.687051,1.707302,1.688552
2020-11-15 22:42:25.351,1.561173,1.692552,1.696552,1.688302
2020-11-15 22:42:25.368,1.562548,1.695677,1.701302,1.687802
2020-11-15 22:42:25.385,1.562173,1.703802,1.702677,1.686426
2020-11-15 22:42:25.402,1.561923,1.700427,1.710677,1.687802
2020-11-15 22:42:25.419,1.562673,1.698927,1.710052,1.687802
2020-11-15 22:42:25.436,1.559673,1.692677,1.708552,1.690052
2020-11-15 22:42:25.453,1.560423,1.689052,1.704802,1.688677
2020-11-15 22:42:25.470,1.563173,1.692802,1.695802,1.688802
2020-11-15 22:42:25.487,1.563423,1.695427,1.702052,1.686676
2020-11-15 22:42:25.505,1.561298,1.703802,1.703927,1.687051
2020-11-15 22:42:25.522,1.561423,1.700302,1.707302,1.686926
2020-11-15 22:42:25.540,1.562673,1.699927,1.714802,1.687927
2020-11-15 22:42:25.557,1.561173,1.695052,1.709302,1.688177
2020-11-15 22:42:25.574,1.559423,1.686176,1.707052,1.688177
2020-11-15 22:42:25.591,1.562673,1.692802,1.697427,1.688677
2020-11-15 22:42:25.608,1.563173,1.696677,1.701802,1.687677
2020-11-15 22:42:25.625,1.561673,1.706052,1.701927,1.687176
2020-11-15 22:42:25.642,1.561548,1.699802,1.708927,1.687426
2020-11-15 22:42:25.659,1.561673,1.698677,1.712302,1.688302
2020-11-15 22:42:25.676,1.561798,1.690427,1.708302,1.689427
2020-11-15 22:42:25.693,1.561673,1.691177,1.704552,1.689302
2020-11-15 22:42:25.710,1.562173,1.693552,1.696427,1.687927
2020-11-15 22:42:25.727,1.561298,1.697177,1.701552,1.687051
2020-11-15 22:42:25.744,1.562173,1.705552,1.702552,1.687677
2020-11-15 22:42:25.762,1.561548,1.700052,1.709677,1.687677
2020-11-15 22:42:25.779,1.561048,1.696802,1.709177,1.687802
2020-11-15 22:42:25.796,1.561423,1.689677,1.709052,1.689427
2020-11-15 22:42:25.813,1.560548,1.691552,1.704552,1.688427
2020-11-15 22:42:25.830,1.560673,1.693052,1.695302,1.688302
2020-11-15 22:42:25.847,1.561798,1.698927,1.701427,1.687051
2020-11-15 22:42:25.864,1.561798,1.704052,1.703177,1.687051
2020-11-15 22:42:25.881,1.560423,1.699802,1.711802,1.688052
2020-11-15 22:42:25.898,1.561673,1.697427,1.709177,1.688802
2020-11-15 22:42:25.915,1.559923,1.688052,1.708177,1.689802
2020-11-15 22:42:25.932,1.561423,1.692802,1.699302,1.688302
2020-11-15 22:42:25.949,1.565173,1.693552,1.701552,1.687802
2020-11-15 22:42:25.967,1.559923,1.700427,1.701677,1.686426
2020-11-15 22:42:25.984,1.561173,1.701927,1.703802,1.687176
2020-11-15 22:42:26.001,1.560798,1.700177,1.713302,1.687802
2020-11-15 22:42:26.018,1.560798,1.696177,1.708677,1.688802
2020-11-15 22:42:26.035,1.560673,1.686301,1.706802,1.689177
2020-11-15 22:42:26.052,1.561173,1.692927,1.697677,1.688927
2020-11-15 22:42:26.069,1.563923,1.693802,1.700927,1.688177
2020-11-15 22:42:26.086,1.563423,1.702302,1.702052,1.686676
2020-11-15 22:42:26.103,1.562548,1.699927,1.708427,1.687176
2020-11-15 22:42:26.120,1.562298,1.699427,1.713302,1.687426
2020-11-15 22:42:26.137,1.561173,1.695302,1.709552,1.689427
2020-11-15 22:42:26.154,1.560173,1.686176,1.705802,1.688177
2020-11-15 22:42:26.171,1.562423,1.691927,1.697427,1.688302
2020-11-15 22:42:26.188,1.561923,1.694302,1.701677,1.687426
2020-11-15 22:42:26.205,1.562048,1.703427,1.701927,1.687677
2020-11-15 22:42:26.222,1.562048,1.700552,1.709302,1.687677
2020-11-15 22:42:26.239,1.562048,1.698302,1.710552,1.688302
2020-11-15 22:42:26.256,1.560798,1.688677,1.708677,1.690177
2020-11-15 22:42:26.273,1.559798,1.692427,1.704927,1.688552
2020-11-15 22:42:26.290,1.563298,1.693427,1.695552,1.688052
2020-11-15 22:42:26.307,1.561048,1.698052,1.701427,1.687176
2020-11-15 22:42:26.324,1.561173,1.704302,1.702677,1.687301
2020-11-15 22:42:26.341,1.562798,1.699677,1.711427,1.686676
2020-11-15 22:42:26.360,1.561048,1.699177,1.715302,1.688177
2020-11-15 22:42:26.377,1.561798,1.692552,1.709052,1.689677
2020-11-15 22:42:26.394,1.560673,1.690552,1.704552,1.688177
2020-11-15 22:42:26.411,1.563298,1.692177,1.695927,1.688552
2020-11-15 22:42:26.428,1.562173,1.696052,1.701802,1.686926
2020-11-15 22:42:26.445,1.561298,1.705177,1.704052,1.687426
2020-11-15 22:42:26.462,1.561048,1.699427,1.713052,1.687301
2020-11-15 22:42:26.479,1.561798,1.698802,1.709427,1.687802
2020-11-15 22:42:26.496,1.560673,1.689927,1.708677,1.688927
2020-11-15 22:42:26.513,1.561673,1.691552,1.702302,1.688427
2020-11-15 22:42:26.530,1.564548,1.692802,1.697427,1.687551
2020-11-15 22:42:26.547,1.561298,1.696677,1.702052,1.687051
2020-11-15 22:42:26.564,1.563298,1.705427,1.704177,1.687677
2020-11-15 22:42:26.581,1.561423,1.698927,1.713802,1.687426
2020-11-15 22:42:26.598,1.560298,1.696177,1.709427,1.689427
2020-11-15 22:42:26.615,1.561423,1.686801,1.707802,1.688802
2020-11-15 22:42:26.632,1.560798,1.692552,1.701427,1.688177
2020-11-15 22:42:26.649,1.563048,1.694052,1.699677,1.687927
2020-11-15 22:42:26.666,1.561048,1.703927,1.701677,1.686926
2020-11-15 22:42:26.683,1.562673,1.700677,1.704677,1.687426
2020-11-15 22:42:26.700,1.561548,1.699052,1.714427,1.687551
2020-11-15 22:42:26.717,1.560423,1.693677,1.707677,1.689302
2020-11-15 22:42:26.734,1.560673,1.687677,1.705302,1.688927
2020-11-15 22:42:26.751,1.562048,1.692927,1.696052,1.688552
2020-11-15 22:42:26.768,1.562798,1.694677,1.701552,1.687677
2020-11-15 22:42:26.785,1.561423,1.704302,1.702802,1.687176
2020-11-15 22:42:26.802,1.562798,1.700302,1.711677,1.687426
2020-11-15 22:42:26.819,1.561923,1.698927,1.709427,1.688052
2020-11-15 22:42:26.836,1.561173,1.692052,1.708427,1.688677
2020-11-15 22:42:26.853,1.561298,1.688802,1.704802,1.687927
2020-11-15 22:42:26.870,1.563798,1.692052,1.695927,1.687927
2020-11-15 22:42:26.887,1.562173,1.695052,1.702052,1.686426
2020-11-15 22:42:26.904,1.561923,1.703677,1.703427,1.686551
2020-11-15 22:42:26.922,1.562173,1.699677,1.712802,1.686926
2020-11-15 22:42:26.939,1.561298,1.699052,1.709927,1.687176
2020-11-15 22:42:26.956,1.561298,1.690802,1.708802,1.688927
2020-11-15 22:42:26.973,1.561923,1.692302,1.703677,1.688802
2020-11-15 22:42:26.990,1.563548,1.693052,1.696177,1.687927
2020-11-15 22:42:27.007,1.562673,1.701302,1.701552,1.687051
2020-11-15 22:42:27.024,1.562048,1.700427,1.703927,1.687551
2020-11-15 22:42:27.041,1.561673,1.699677,1.714052,1.687927
2020-11-15 22:42:27.058,1.560798,1.695927,1.709427,1.689677
2020-11-15 22:42:27.075,1.562298,1.687301,1.708052,1.689302
2020-11-15 22:42:27.092,1.561673,1.692427,1.701302,1.688552
2020-11-15 22:42:27.109,1.563548,1.693677,1.698427,1.688052
2020-11-15 22:42:27.126,1.562298,1.702802,1.702427,1.687301
2020-11-15 22:42:27.143,1.560923,1.700427,1.709177,1.687301
2020-11-15 22:42:27.160,1.561798,1.699302,1.711927,1.687426
2020-11-15 22:42:27.177,1.561298,1.696302,1.709302,1.688177
2020-11-15 22:42:27.195,1.561673,1.689052,1.708302,1.689302
2020-11-15 22:42:27.213,1.560298,1.691427,1.699927,1.687802
2020-11-15 22:42:27.230,1.563923,1.693177,1.701052,1.687426
2020-11-15 22:42:27.247,1.561548,1.699302,1.702927,1.686926
2020-11-15 22:42:27.264,1.561548,1.702677,1.705677,1.686926
2020-11-15 22:42:27.281,1.562548,1.699177,1.715177,1.686676
2020-11-15 22:42:27.298,1.562673,1.696177,1.709677,1.689802
2020-11-15 22:42:27.315,1.562048,1.689052,1.707302,1.688677
2020-11-15 22:42:27.332,1.561298,1.692552,1.698552,1.688927
2020-11-15 22:42:27.349,1.564548,1.695927,1.700927,1.687802
2020-11-15 22:42:27.366,1.563798,1.704927,1.701802,1.687301
2020-11-15 22:42:27.383,1.562298,1.700302,1.706927,1.687301
2020-11-15 22:42:27.400,1.562173,1.699052,1.714052,1.687927
2020-11-15 22:42:27.417,1.560673,1.691552,1.707677,1.689677
2020-11-15 22:42:27.434,1.562298,1.691802,1.705802,1.688552
2020-11-15 22:42:27.451,1.562298,1.692802,1.696177,1.687927
2020-11-15 22:42:27.468,1.563548,1.696677,1.702052,1.687176
2020-11-15 22:42:27.485,1.562298,1.705302,1.703927,1.687551
2020-11-15 22:42:27.502,1.561548,1.699677,1.713802,1.687426
2020-11-15 22:42:27.519,1.561173,1.698802,1.709552,1.688177
2020-11-15 22:42:27.536,1.561798,1.689177,1.708427,1.689677
2020-11-15 22:42:27.553,1.562173,1.691927,1.702302,1.688552
2020-11-15 22:42:27.570,1.563173,1.692552,1.697802,1.688177
2020-11-15 22:42:27.587,1.561423,1.697302,1.701927,1.686676
2020-11-15 22:42:27.604,1.563423,1.705052,1.705052,1.687051
2020-11-15 22:42:27.621,1.560548,1.699427,1.714177,1.686926
2020-11-15 22:42:27.638,1.562548,1.697552,1.709302,1.689427
2020-11-15 22:42:27.655,1.561173,1.686676,1.708427,1.689052
2020-11-15 22:42:27.672,1.567673,1.693052,1.700427,1.688552
2020-11-15 22:42:27.689,1.564048,1.694552,1.700552,1.688177
2020-11-15 22:42:27.706,1.562798,1.703927,1.702052,1.686926
2020-11-15 22:42:27.723,1.562173,1.700427,1.705052,1.687301
2020-11-15 22:42:27.740,1.561798,1.699177,1.714802,1.688427
2020-11-15 22:42:27.757,1.563798,1.694427,1.708677,1.689552
2020-11-15 22:42:27.774,1.562423,1.688302,1.706427,1.689177
2020-11-15 22:42:27.791,1.560173,1.692677,1.697927,1.688552
2020-11-15 22:42:27.808,1.563548,1.695177,1.702052,1.687677
2020-11-15 22:42:27.826,1.561298,1.704802,1.702677,1.686551
2020-11-15 22:42:27.843,1.562673,1.700052,1.711927,1.687426
2020-11-15 22:42:27.860,1.563923,1.699177,1.709677,1.687927
2020-11-15 22:42:27.877,1.561173,1.691927,1.708927,1.689552
2020-11-15 22:42:27.894,1.560173,1.690427,1.703927,1.688177
2020-11-15 22:42:27.911,1.564923,1.692552,1.695802,1.688302
2020-11-15 22:42:27.928,1.562548,1.695302,1.702177,1.687176
2020-11-15 22:42:27.945,1.562548,1.705552,1.703927,1.686801
2020-11-15 22:42:27.962,1.562548,1.699677,1.713302,1.687426
2020-11-15 22:42:27.979,1.560798,1.696427,1.709552,1.688677
2020-11-15 22:42:27.996,1.561673,1.687927,1.708552,1.689302
2020-11-15 22:42:28.014,1.560923,1.692177,1.705677,1.688677
2020-11-15 22:42:28.031,1.561923,1.693177,1.696802,1.688927
2020-11-15 22:42:28.048,1.562298,1.696802,1.701427,1.687051
2020-11-15 22:42:28.065,1.560298,1.706552,1.702677,1.687802
2020-11-15 22:42:28.082,1.563048,1.699552,1.709052,1.687301
2020-11-15 22:42:28.099,1.561173,1.698302,1.710302,1.688177
2020-11-15 22:42:28.116,1.560923,1.689052,1.708677,1.690177
2020-11-15 22:42:28.133,1.563673,1.692052,1.704427,1.688552
2020-11-15 22:42:28.150,1.563048,1.693052,1.695552,1.687426
2020-11-15 22:42:28.167,1.561923,1.698302,1.701052,1.687176
2020-11-15 22:42:28.184,1.560298,1.704802,1.705552,1.687176
2020-11-15 22:42:28.201,1.562298,1.700052,1.715052,1.688427
2020-11-15 22:42:28.219,1.563673,1.697427,1.709552,1.688552
2020-11-15 22:42:28.236,1.559798,1.688052,1.708552,1.689677
2020-11-15 22:42:28.253,1.560923,1.692052,1.699052,1.687927
2020-11-15 22:42:28.270,1.563548,1.693302,1.694302,1.688427
2020-11-15 22:42:28.287,1.562173,1.699927,1.702302,1.686676
2020-11-15 22:42:28.304,1.561673,1.702052,1.702927,1.687802
2020-11-15 22:42:28.321,1.560673,1.700302,1.716177,1.687927
2020-11-15 22:42:28.338,1.560673,1.696427,1.708677,1.688427
2020-11-15 22:42:28.355,1.561048,1.687927,1.706927,1.688552
2020-11-15 22:42:28.372,1.562173,1.692177,1.698177,1.688552
2020-11-15 22:42:28.389,1.565298,1.692927,1.700802,1.687551
2020-11-15 22:42:28.406,1.561548,1.701677,1.702427,1.686676
2020-11-15 22:42:28.423,1.561923,1.700677,1.707927,1.687301
2020-11-15 22:42:28.440,1.562673,1.698802,1.713802,1.687176
2020-11-15 22:42:28.457,1.561548,1.695177,1.708927,1.688552
2020-11-15 22:42:28.474,1.562048,1.686551,1.706552,1.688552
2020-11-15 22:42:28.491,1.563423,1.693052,1.697177,1.688552
2020-11-15 22:42:28.509,1.564298,1.696552,1.701552,1.687051
2020-11-15 22:42:28.526,1.563923,1.706177,1.701927,1.687551
2020-11-15 22:42:28.543,1.562298,1.699927,1.709052,1.687802
2020-11-15 22:42:28.560,1.562173,1.698552,1.711802,1.688302
2020-11-15 22:42:28.577,1.561423,1.688802,1.708677,1.690052
2020-11-15 22:42:28.594,1.560798,1.692177,1.705177,1.688427
2020-11-15 22:42:28.611,1.563173,1.693302,1.695177,1.688802
2020-11-15 22:42:28.628,1.559298,1.697927,1.700552,1.687051
2020-11-15 22:42:28.645,1.561173,1.705427,1.702177,1.687551
2020-11-15 22:42:28.662,1.559423,1.699552,1.714927,1.687551
2020-11-15 22:42:28.679,1.563423,1.697802,1.709427,1.688802
2020-11-15 22:42:28.696,1.561173,1.688677,1.708552,1.689677
2020-11-15 22:42:28.713,1.563298,1.691677,1.700552,1.688052
2020-11-15 22:42:28.730,1.564798,1.693177,1.701302,1.687677
2020-11-15 22:42:28.747,1.562173,1.699052,1.702302,1.686926
2020-11-15 22:42:28.764,1.561923,1.701927,1.706052,1.686551
2020-11-15 22:42:28.781,1.561798,1.699427,1.715302,1.686926
2020-11-15 22:42:28.798,1.561798,1.696177,1.708802,1.688552
2020-11-15 22:42:28.815,1.561298,1.687301,1.707427,1.688677
2020-11-15 22:42:28.832,1.562423,1.690427,1.703802,1.688052
2020-11-15 22:42:28.851,1.562923,1.692802,1.696427,1.687551
2020-11-15 22:42:28.868,1.563173,1.696052,1.701677,1.686801
2020-11-15 22:42:28.885,1.561798,1.704927,1.704552,1.687051
2020-11-15 22:42:28.902,1.563798,1.699302,1.713552,1.687551
2020-11-15 22:42:28.919,1.562798,1.695677,1.710302,1.689302
2020-11-15 22:42:28.936,1.562298,1.686301,1.708177,1.688677
2020-11-15 22:42:28.953,1.562173,1.692802,1.701677,1.688177
2020-11-15 22:42:28.970,1.565048,1.693802,1.698302,1.688177
2020-11-15 22:42:28.987,1.563423,1.702927,1.701802,1.687176
2020-11-15 22:42:29.004,1.562923,1.700677,1.704302,1.687176
2020-11-15 22:42:29.021,1.563923,1.699302,1.713552,1.687176
2020-11-15 22:42:29.038,1.559923,1.694802,1.708302,1.689427
2020-11-15 22:42:29.055,1.563548,1.687051,1.707927,1.688552
2020-11-15 22:42:29.072,1.561548,1.692427,1.696677,1.688427
2020-11-15 22:42:29.089,1.563298,1.694802,1.701052,1.687426
2020-11-15 22:42:29.106,1.562673,1.704552,1.702927,1.686551
2020-11-15 22:42:29.123,1.563923,1.700177,1.710177,1.687176
2020-11-15 22:42:29.140,1.562673,1.698802,1.710052,1.687677
2020-11-15 22:42:29.157,1.562048,1.693552,1.708677,1.689177
2020-11-15 22:42:29.174,1.561923,1.688302,1.704677,1.688677
2020-11-15 22:42:29.191,1.564298,1.691677,1.695302,1.687927
2020-11-15 22:42:29.208,1.562923,1.695302,1.701552,1.686926
2020-11-15 22:42:29.225,1.563173,1.703802,1.703177,1.687551
2020-11-15 22:42:29.242,1.558548,1.699677,1.712302,1.688177
2020-11-15 22:42:29.259,1.561048,1.696427,1.709802,1.688302
2020-11-15 22:42:29.276,1.560048,1.688552,1.708677,1.689427
2020-11-15 22:42:29.293,1.561298,1.692177,1.703427,1.688177
2020-11-15 22:42:29.310,1.562798,1.693427,1.695802,1.688177
2020-11-15 22:42:29.327,1.561173,1.700302,1.701677,1.686426
2020-11-15 22:42:29.344,1.561798,1.701427,1.703427,1.687677
2020-11-15 22:42:29.361,1.562298,1.699802,1.712427,1.687051
2020-11-15 22:42:29.378,1.561173,1.695052,1.708927,1.688927
2020-11-15 22:42:29.396,1.561298,1.686926,1.708302,1.689177
2020-11-15 22:42:29.413,1.561048,1.692802,1.702302,1.688302
2020-11-15 22:42:29.430,1.563798,1.693802,1.697427,1.687301
2020-11-15 22:42:29.447,1.562423,1.702302,1.701302,1.686426
2020-11-15 22:42:29.464,1.562423,1.700302,1.704427,1.687301
2020-11-15 22:42:29.481,1.561548,1.699427,1.714177,1.687051
2020-11-15 22:42:29.498,1.561923,1.695177,1.708177,1.688677
2020-11-15 22:42:29.515,1.560548,1.686176,1.707427,1.688802
2020-11-15 22:42:29.532,1.560923,1.692552,1.699802,1.688552
2020-11-15 22:42:29.549,1.563548,1.694302,1.701302,1.688177
2020-11-15 22:42:29.566,1.561298,1.703552,1.701927,1.686801
2020-11-15 22:42:29.583,1.561298,1.700302,1.709802,1.687176
2020-11-15 22:42:29.600,1.562048,1.699427,1.710927,1.687301
2020-11-15 22:42:29.617,1.561298,1.693802,1.708302,1.689177
2020-11-15 22:42:29.634,1.559798,1.687426,1.704552,1.688552
2020-11-15 22:42:29.651,1.561923,1.692302,1.695802,1.688052
2020-11-15 22:42:29.670,1.564548,1.693177,1.700927,1.687802
2020-11-15 22:42:29.687,1.561673,1.699552,1.701802,1.686426
2020-11-15 22:42:29.704,1.561423,1.701177,1.706802,1.686801
2020-11-15 22:42:29.721,1.562423,1.698927,1.714802,1.687426
2020-11-15 22:42:29.738,1.561423,1.695927,1.708552,1.688427
2020-11-15 22:42:29.755,1.561298,1.686176,1.706927,1.688177
2020-11-15 22:42:29.772,1.561173,1.693427,1.697427,1.688427
2020-11-15 22:42:29.789,1.563423,1.696052,1.700927,1.686551
2020-11-15 22:42:29.806,1.562048,1.705177,1.702302,1.686801
2020-11-15 22:42:29.823,1.561798,1.700177,1.707427,1.687051
2020-11-15 22:42:29.840,1.561673,1.698927,1.711802,1.687051
2020-11-15 22:42:29.857,1.561673,1.690177,1.707677,1.689802
2020-11-15 22:42:29.874,1.561423,1.692052,1.705927,1.688677
2020-11-15 22:42:29.891,1.561173,1.692802,1.696677,1.688677
2020-11-15 22:42:29.908,1.562423,1.696802,1.701427,1.686801
2020-11-15 22:42:29.925,1.561798,1.705552,1.701302,1.687051
2020-11-15 22:42:29.942,1.561298,1.699427,1.709302,1.687551
2020-11-15 22:42:29.960,1.562548,1.697802,1.709802,1.687927
2020-11-15 22:42:29.977,1.561798,1.689552,1.708302,1.689302
2020-11-15 22:42:29.994,1.560673,1.692052,1.700677,1.688427
2020-11-15 22:42:30.011,1.563923,1.692802,1.699802,1.688177
2020-11-15 22:42:30.028,1.560548,1.698052,1.702052,1.686051
2020-11-15 22:42:30.045,1.560923,1.704427,1.705552,1.687051
2020-11-15 22:42:30.062,1.561923,1.699302,1.714677,1.687677
2020-11-15 22:42:30.079,1.562298,1.696927,1.709302,1.688302
2020-11-15 22:42:30.096,1.561423,1.687426,1.707052,1.689427
2020-11-15 22:42:30.113,1.561673,1.691677,1.699302,1.687802
2020-11-15 22:42:30.130,1.563048,1.692927,1.701052,1.687551
2020-11-15 22:42:30.147,1.562048,1.699177,1.702302,1.686676
2020-11-15 22:42:30.164,1.561798,1.701427,1.705552,1.687551
2020-11-15 22:42:30.181,1.562298,1.699052,1.715177,1.687927
2020-11-15 22:42:30.198,1.559048,1.692302,1.708677,1.689177
2020-11-15 22:42:30.215,1.561173,1.688802,1.706802,1.688427
2020-11-15 22:42:30.232,1.561923,1.692802,1.696927,1.688177
2020-11-15 22:42:30.249,1.564548,1.695427,1.700177,1.687677
2020-11-15 22:42:30.266,1.562298,1.705302,1.701802,1.686801
2020-11-15 22:42:30.283,1.563048,1.700052,1.707052,1.687301
2020-11-15 22:42:30.300,1.562798,1.698302,1.712927,1.688052
2020-11-15 22:42:30.317,1.561423,1.691177,1.708302,1.689802
2020-11-15 22:42:30.334,1.561298,1.691802,1.703052,1.688177
2020-11-15 22:42:30.351,1.564423,1.693052,1.696427,1.688802
2020-11-15 22:42:30.368,1.562298,1.696802,1.701927,1.687051
2020-11-15 22:42:30.385,1.562173,1.706052,1.704802,1.686801
2020-11-15 22:42:30.402,1.562923,1.699427,1.713552,1.686926
2020-11-15 22:42:30.419,1.561548,1.697927,1.709927,1.687426
2020-11-15 22:42:30.436,1.562298,1.688677,1.708427,1.689427
2020-11-15 22:42:30.453,1.561548,1.691552,1.701677,1.687802
2020-11-15 22:42:30.470,1.564298,1.692177,1.698427,1.687301
2020-11-15 22:42:30.487,1.563048,1.694052,1.701927,1.686801
2020-11-15 22:42:30.506,1.562548,1.703677,1.702552,1.686051
2020-11-15 22:42:30.523,1.562298,1.699802,1.711552,1.687426
2020-11-15 22:42:30.540,1.561798,1.697927,1.709802,1.688802
2020-11-15 22:42:30.557,1.560548,1.687927,1.708677,1.689427
2020-11-15 22:42:30.574,1.559923,1.689427,1.704552,1.688552
2020-11-15 22:42:30.591,1.562548,1.693052,1.695177,1.687927
2020-11-15 22:42:30.608,1.560673,1.695677,1.701927,1.687176
2020-11-15 22:42:30.625,1.561798,1.704802,1.704427,1.686801
2020-11-15 22:42:30.642,1.560548,1.699177,1.712677,1.687176
2020-11-15 22:42:30.659,1.561923,1.696552,1.709552,1.688927
2020-11-15 22:42:30.676,1.561173,1.687426,1.708927,1.688927
2020-11-15 22:42:30.694,1.560673,1.691802,1.702552,1.688802
2020-11-15 22:42:30.711,1.563923,1.693177,1.696302,1.687802
2020-11-15 22:42:30.728,1.561798,1.701302,1.701677,1.686676
2020-11-15 22:42:30.745,1.562298,1.700552,1.703677,1.687927
2020-11-15 22:42:30.762,1.561798,1.699802,1.713802,1.687677
2020-11-15 22:42:30.779,1.559923,1.695552,1.708927,1.689552
2020-11-15 22:42:30.796,1.561423,1.686676,1.707802,1.688427
2020-11-15 22:42:30.813,1.560923,1.692427,1.700927,1.688927
2020-11-15 22:42:30.830,1.562923,1.694302,1.701427,1.687677
2020-11-15 22:42:30.847,1.561048,1.703052,1.702052,1.686676
2020-11-15 22:42:30.864,1.561298,1.699927,1.708677,1.687301
2020-11-15 22:42:30.881,1.562048,1.698802,1.711677,1.687301
2020-11-15 22:42:30.898,1.561298,1.694427,1.709177,1.688677
2020-11-15 22:42:30.915,1.561798,1.687051,1.704927,1.688302
2020-11-15 22:42:30.932,1.562173,1.692552,1.696177,1.688552
2020-11-15 22:42:30.949,1.563548,1.694677,1.701052,1.686676
2020-11-15 22:42:30.966,1.561923,1.703302,1.702427,1.686301
2020-11-15 22:42:30.983,1.560548,1.699677,1.710552,1.686676
2020-11-15 22:42:31.000,1.562673,1.698302,1.708927,1.687927
2020-11-15 22:42:31.017,1.561923,1.692927,1.708927,1.689302
2020-11-15 22:42:31.034,1.561298,1.691677,1.704552,1.688677
2020-11-15 22:42:31.051,1.562423,1.693177,1.695052,1.687677
2020-11-15 22:42:31.068,1.562298,1.698927,1.701052,1.686051
2020-11-15 22:42:31.085,1.562173,1.703302,1.703302,1.687677
2020-11-15 22:42:31.102,1.562548,1.699802,1.711802,1.687301
2020-11-15 22:42:31.119,1.561798,1.696552,1.709427,1.688427
2020-11-15 22:42:31.136,1.560798,1.687677,1.707802,1.688552
2020-11-15 22:42:31.153,1.559923,1.691677,1.697927,1.688052
2020-11-15 22:42:31.170,1.563548,1.693177,1.700552,1.688052
2020-11-15 22:42:31.187,1.562298,1.701427,1.701927,1.686801
2020-11-15 22:42:31.204,1.563048,1.700677,1.706802,1.687051
2020-11-15 22:42:31.221,1.562548,1.699427,1.713927,1.687301
2020-11-15 22:42:31.238,1.561048,1.695552,1.708552,1.689052
2020-11-15 22:42:31.255,1.561048,1.686426,1.706302,1.689052
2020-11-15 22:42:31.272,1.562798,1.692427,1.697552,1.687927
2020-11-15 22:42:31.289,1.562798,1.693177,1.700677,1.686926
2020-11-15 22:42:31.307,1.563423,1.701802,1.702302,1.686051
2020-11-15 22:42:31.325,1.561298,1.704927,1.705552,1.686926
2020-11-15 22:42:31.342,1.561923,1.698802,1.715177,1.687301
2020-11-15 22:42:31.359,1.563798,1.696302,1.708427,1.689552
2020-11-15 22:42:31.376,1.561423,1.687301,1.708052,1.688927
2020-11-15 22:42:31.393,1.560048,1.692427,1.699177,1.688552
2020-11-15 22:42:31.410,1.563673,1.694677,1.700302,1.687551
2020-11-15 22:42:31.427,1.562298,1.704802,1.702302,1.686801
2020-11-15 22:42:31.444,1.562173,1.700677,1.706177,1.687301
2020-11-15 22:42:31.461,1.560798,1.699677,1.715427,1.687426
2020-11-15 22:42:31.478,1.560798,1.693552,1.708177,1.689177
2020-11-15 22:42:31.495,1.560798,1.689052,1.706177,1.688802
2020-11-15 22:42:31.512,1.560798,1.692177,1.698177,1.687802
2020-11-15 22:42:31.529,1.562798,1.695552,1.701927,1.687802
2020-11-15 22:42:31.546,1.561923,1.704927,1.703302,1.687301
2020-11-15 22:42:31.563,1.560548,1.700302,1.712427,1.687176
2020-11-15 22:42:31.580,1.562173,1.699427,1.709677,1.687802
2020-11-15 22:42:31.597,1.560673,1.691677,1.708427,1.688927
2020-11-15 22:42:31.614,1.559673,1.690802,1.703802,1.688427
2020-11-15 22:42:31.631,1.562548,1.692677,1.696802,1.687677
2020-11-15 22:42:31.648,1.561423,1.696177,1.702052,1.686551
2020-11-15 22:42:31.665,1.561298,1.705427,1.704552,1.686551
2020-11-15 22:42:31.682,1.560923,1.698802,1.713677,1.687677
2020-11-15 22:42:31.700,1.561298,1.695802,1.709427,1.689302
2020-11-15 22:42:31.717,1.560548,1.686676,1.707927,1.688552
2020-11-15 22:42:31.734,1.561673,1.692802,1.701802,1.688552
2020-11-15 22:42:31.751,1.563048,1.693552,1.698052,1.687677
2020-11-15 22:42:31.768,1.562423,1.702802,1.701427,1.686801
2020-11-15 22:42:31.785,1.560923,1.700177,1.704802,1.687677
2020-11-15 22:42:31.802,1.561673,1.699802,1.714427,1.687927
2020-11-15 22:42:31.819,1.562298,1.694677,1.708802,1.689677
2020-11-15 22:42:31.836,1.563548,1.686801,1.707302,1.689552
2020-11-15 22:42:31.853,1.561423,1.692677,1.699677,1.688427
2020-11-15 22:42:31.870,1.564548,1.694552,1.701427,1.688052
2020-11-15 22:42:31.887,1.563298,1.704177,1.702552,1.686426
2020-11-15 22:42:31.904,1.561923,1.700552,1.711177,1.686926
2020-11-15 22:42:31.921,1.562923,1.699177,1.710052,1.687551
2020-11-15 22:42:31.938,1.561923,1.692802,1.708427,1.688802
2020-11-15 22:42:31.955,1.561298,1.688677,1.705177,1.688302
2020-11-15 22:42:31.972,1.562923,1.692802,1.695927,1.688052
2020-11-15 22:42:31.989,1.561673,1.696302,1.701677,1.687677
2020-11-15 22:42:32.006,1.562423,1.704052,1.703052,1.686426
2020-11-15 22:42:32.023,1.561048,1.699927,1.712427,1.687301
2020-11-15 22:42:32.040,1.563673,1.698927,1.709177,1.687426
2020-11-15 22:42:32.057,1.561298,1.691552,1.708802,1.689552
2020-11-15 22:42:32.074,1.560048,1.691927,1.703552,1.688802
2020-11-15 22:42:32.091,1.563048,1.693177,1.696052,1.688177
2020-11-15 22:42:32.108,1.561798,1.700552,1.702052,1.687176
2020-11-15 22:42:32.125,1.562048,1.701927,1.703927,1.687677
2020-11-15 22:42:32.142,1.561048,1.699177,1.708302,1.687426
2020-11-15 22:42:32.161,1.561548,1.699302,1.712052,1.688677
2020-11-15 22:42:32.178,1.561798,1.689677,1.708552,1.690177
2020-11-15 22:42:32.195,1.559673,1.691927,1.705177,1.689302
2020-11-15 22:42:32.212,1.562298,1.693052,1.696552,1.687802
2020-11-15 22:42:32.229,1.562048,1.697552,1.701177,1.686926
2020-11-15 22:42:32.246,1.561798,1.705177,1.701677,1.687426
2020-11-15 22:42:32.263,1.561173,1.699427,1.714552,1.687301
2020-11-15 22:42:32.280,1.562298,1.697927,1.709677,1.688052
2020-11-15 22:42:32.297,1.562548,1.688552,1.707927,1.689052
2020-11-15 22:42:32.314,1.561298,1.692302,1.699927,1.688052
2020-11-15 22:42:32.331,1.564548,1.692677,1.701302,1.687551
2020-11-15 22:42:32.348,1.562048,1.698302,1.701677,1.686676
2020-11-15 22:42:32.365,1.562048,1.703427,1.706052,1.686801
2020-11-15 22:42:32.382,1.561798,1.699052,1.714927,1.687927
2020-11-15 22:42:32.399,1.562548,1.694052,1.709427,1.689802
2020-11-15 22:42:32.416,1.560923,1.688427,1.707177,1.688802
2020-11-15 22:42:32.433,1.562423,1.693177,1.698552,1.688802
2020-11-15 22:42:32.450,1.563923,1.695677,1.700802,1.687551
2020-11-15 22:42:32.467,1.562173,1.704052,1.702802,1.687426
2020-11-15 22:42:32.484,1.563048,1.700802,1.707177,1.687677
2020-11-15 22:42:32.501,1.562173,1.698927,1.714927,1.687927
2020-11-15 22:42:32.518,1.562173,1.692052,1.708427,1.689802
2020-11-15 22:42:32.535,1.560548,1.691052,1.706677,1.689052
2020-11-15 22:42:32.552,1.561798,1.692927,1.697177,1.688677
2020-11-15 22:42:32.569,1.562423,1.696302,1.702677,1.687301
2020-11-15 22:42:32.586,1.563048,1.706052,1.703802,1.687176
2020-11-15 22:42:32.603,1.561298,1.699677,1.713427,1.688052
2020-11-15 22:42:32.620,1.563673,1.697927,1.709677,1.687301
2020-11-15 22:42:32.637,1.562423,1.689802,1.708552,1.689177
2020-11-15 22:42:32.654,1.561173,1.691802,1.702177,1.688427
2020-11-15 22:42:32.671,1.564423,1.692177,1.697677,1.688552
2020-11-15 22:42:32.689,1.563548,1.696927,1.701927,1.686426
2020-11-15 22:42:32.706,1.562798,1.705427,1.705302,1.687176
2020-11-15 22:42:32.723,1.563048,1.699927,1.714427,1.687426
2020-11-15 22:42:32.740,1.561923,1.696427,1.709552,1.689552
2020-11-15 22:42:32.757,1.561798,1.687051,1.708427,1.689427
2020-11-15 22:42:32.774,1.562048,1.693177,1.700302,1.688552
2020-11-15 22:42:32.791,1.564298,1.694927,1.700552,1.687426
2020-11-15 22:42:32.808,1.562048,1.703927,1.701427,1.686176
2020-11-15 22:42:32.825,1.562923,1.700427,1.706052,1.687927
2020-11-15 22:42:32.842,1.562548,1.699427,1.714927,1.687677
2020-11-15 22:42:32.859,1.561798,1.693302,1.708177,1.689802
2020-11-15 22:42:32.876,1.562298,1.689052,1.707677,1.689177
2020-11-15 22:42:32.893,1.562673,1.693052,1.698927,1.688927
2020-11-15 22:42:32.910,1.564548,1.695677,1.700552,1.687927
2020-11-15 22:42:32.928,1.562173,1.704802,1.701802,1.687301
2020-11-15 22:42:32.945,1.563048,1.700552,1.706552,1.687927
2020-11-15 22:42:32.962,1.561673,1.698427,1.714677,1.686551
2020-11-15 22:42:32.980,1.560798,1.695927,1.709427,1.688802
2020-11-15 22:42:32.997,1.560423,1.687301,1.708177,1.688552
2020-11-15 22:42:33.014,1.561798,1.692427,1.702177,1.688427
2020-11-15 22:42:33.031,1.563298,1.694302,1.697427,1.688052
2020-11-15 22:42:33.048,1.561173,1.702552,1.701427,1.687301
2020-11-15 22:42:33.065,1.562298,1.700052,1.704427,1.687176
2020-11-15 22:42:33.082,1.560923,1.699927,1.713177,1.687802
2020-11-15 22:42:33.099,1.560423,1.695302,1.709052,1.689552
2020-11-15 22:42:33.116,1.562173,1.686426,1.705677,1.688302
2020-11-15 22:42:33.133,1.563798,1.693177,1.696677,1.688677
2020-11-15 22:42:33.150,1.563173,1.694052,1.701677,1.687802
2020-11-15 22:42:33.167,1.562548,1.704177,1.702677,1.687051
2020-11-15 22:42:33.184,1.559548,1.700552,1.710802,1.687301
2020-11-15 22:42:33.201,1.562798,1.699552,1.710302,1.687301
2020-11-15 22:42:33.218,1.561798,1.693052,1.708302,1.689802
2020-11-15 22:42:33.235,1.562048,1.688552,1.705052,1.688427
2020-11-15 22:42:33.252,1.563548,1.692302,1.695552,1.688552
2020-11-15 22:42:33.269,1.562798,1.699302,1.702177,1.687426
2020-11-15 22:42:33.286,1.560798,1.703802,1.702927,1.687051
2020-11-15 22:42:33.303,1.559548,1.699677,1.711802,1.687677
2020-11-15 22:42:33.320,1.560298,1.696677,1.709302,1.688177
2020-11-15 22:42:33.337,1.560173,1.687551,1.708677,1.689052
2020-11-15 22:42:33.354,1.561423,1.692552,1.703677,1.688427
2020-11-15 22:42:33.371,1.561798,1.693552,1.696052,1.687927
2020-11-15 22:42:33.389,1.561673,1.700677,1.701177,1.686551
2020-11-15 22:42:33.406,1.562798,1.701927,1.702677,1.687551
2020-11-15 22:42:33.423,1.563173,1.699427,1.715427,1.687802
2020-11-15 22:42:33.440,1.563423,1.696177,1.709052,1.688802
2020-11-15 22:42:33.457,1.560173,1.686426,1.706552,1.688677
2020-11-15 22:42:33.474,1.563173,1.692302,1.698052,1.688552
2020-11-15 22:42:33.491,1.564298,1.693552,1.701427,1.687927
2020-11-15 22:42:33.508,1.560923,1.702427,1.702552,1.685676
2020-11-15 22:42:33.525,1.562673,1.699677,1.708677,1.687176
2020-11-15 22:42:33.542,1.563923,1.698802,1.713052,1.687051
2020-11-15 22:42:33.559,1.563173,1.694927,1.709177,1.688677
2020-11-15 22:42:33.576,1.562548,1.685926,1.706052,1.688427
2020-11-15 22:42:33.593,1.563673,1.693302,1.696802,1.689052
2020-11-15 22:42:33.610,1.563548,1.697302,1.700802,1.687426
2020-11-15 22:42:33.627,1.563423,1.706052,1.701927,1.687426
2020-11-15 22:42:33.644,1.564548,1.699302,1.709927,1.687301
2020-11-15 22:42:33.661,1.562673,1.698427,1.709802,1.688552
2020-11-15 22:42:33.678,1.563798,1.689177,1.707927,1.689802
2020-11-15 22:42:33.695,1.561423,1.691677,1.704552,1.689052
2020-11-15 22:42:33.712,1.564173,1.693552,1.700302,1.688677
2020-11-15 22:42:33.729,1.563173,1.698302,1.701302,1.687301
2020-11-15 22:42:33.746,1.561798,1.704802,1.706552,1.688302
2020-11-15 22:42:33.763,1.563423,1.699677,1.715302,1.687802
2020-11-15 22:42:33.780,1.563048,1.696677,1.708802,1.688552
2020-11-15 22:42:33.797,1.563173,1.690552,1.707927,1.690052
2020-11-15 22:42:33.815,1.563798,1.690802,1.704052,1.688677
2020-11-15 22:42:33.832,1.564673,1.692552,1.695677,1.688052
2020-11-15 22:42:33.849,1.564298,1.695677,1.702052,1.687051
2020-11-15 22:42:33.866,1.565048,1.704927,1.703927,1.687301
2020-11-15 22:42:33.883,1.562173,1.698802,1.712927,1.687176
2020-11-15 22:42:33.901,1.565298,1.697927,1.710052,1.689052
2020-11-15 22:42:33.918,1.561548,1.687301,1.708677,1.689302
2020-11-15 22:42:33.935,1.562298,1.692427,1.702552,1.688427
2020-11-15 22:42:33.952,1.564798,1.694177,1.697302,1.687802
2020-11-15 22:42:33.969,1.563673,1.702177,1.702052,1.687301
2020-11-15 22:42:33.986,1.561423,1.700302,1.704552,1.687301
2020-11-15 22:42:34.003,1.562173,1.699302,1.713302,1.687426
2020-11-15 22:42:34.020,1.563423,1.695177,1.709177,1.689302
2020-11-15 22:42:34.037,1.561798,1.687176,1.707552,1.688677
2020-11-15 22:42:34.054,1.563298,1.692427,1.696802,1.688302
2020-11-15 22:42:34.071,1.565298,1.694427,1.701177,1.687677
2020-11-15 22:42:34.088,1.562923,1.704052,1.702552,1.686426
2020-11-15 22:42:34.105,1.562673,1.700177,1.710177,1.687051
2020-11-15 22:42:34.122,1.564673,1.699677,1.710802,1.687301
2020-11-15 22:42:34.139,1.562048,1.693927,1.708302,1.689677
2020-11-15 22:42:34.156,1.562923,1.688552,1.704802,1.688802
2020-11-15 22:42:34.173,1.565298,1.692427,1.695802,1.687927
2020-11-15 22:42:34.190,1.564548,1.695177,1.702177,1.687051
2020-11-15 22:42:34.207,1.562923,1.703927,1.702927,1.687051
2020-11-15 22:42:34.224,1.563423,1.698927,1.712052,1.687426
2020-11-15 22:42:34.241,1.562423,1.697052,1.709802,1.688677
2020-11-15 22:42:34.258,1.563048,1.688427,1.708427,1.689552
2020-11-15 22:42:34.275,1.561048,1.692427,1.703302,1.689052
2020-11-15 22:42:34.292,1.565548,1.693052,1.695427,1.688177
2020-11-15 22:42:34.309,1.564923,1.700427,1.701177,1.686926
2020-11-15 22:42:34.326,1.565298,1.702552,1.703052,1.687051
2020-11-15 22:42:34.343,1.565173,1.699802,1.712552,1.687551
2020-11-15 22:42:34.360,1.564173,1.696177,1.709052,1.689177
2020-11-15 22:42:34.377,1.563423,1.687176,1.706927,1.688052
2020-11-15 22:42:34.394,1.563048,1.692677,1.697427,1.688302
2020-11-15 22:42:34.411,1.565423,1.694052,1.701177,1.687802
2020-11-15 22:42:34.428,1.564048,1.702052,1.702302,1.686676
2020-11-15 22:42:34.445,1.565298,1.700302,1.708302,1.687176
2020-11-15 22:42:34.462,1.562548,1.699177,1.713552,1.688052
2020-11-15 22:42:34.479,1.561673,1.694927,1.708302,1.688927
2020-11-15 22:42:34.496,1.561923,1.686551,1.706177,1.688677
2020-11-15 22:42:34.513,1.564548,1.692302,1.696802,1.688552
2020-11-15 22:42:34.530,1.563423,1.697552,1.701302,1.686801
2020-11-15 22:42:34.547,1.563298,1.706052,1.702802,1.686801
2020-11-15 22:42:34.564,1.563548,1.699677,1.710302,1.688302
2020-11-15 22:42:34.581,1.563048,1.698427,1.710552,1.688177
2020-11-15 22:42:34.598,1.563173,1.689177,1.708552,1.689677
2020-11-15 22:42:34.615,1.563798,1.692177,1.704552,1.688052
2020-11-15 22:42:34.634,1.562298,1.692552,1.698677,1.688302
2020-11-15 22:42:34.651,1.567048,1.695427,1.701302,1.687426
2020-11-15 22:42:34.668,1.566048,1.704052,1.701552,1.687051
2020-11-15 22:42:34.685,1.563048,1.700177,1.706177,1.687927
2020-11-15 22:42:34.702,1.564173,1.699302,1.714927,1.688552
2020-11-15 22:42:34.719,1.563048,1.692552,1.708427,1.689927
2020-11-15 22:42:34.736,1.561798,1.690427,1.704052,1.688802
2020-11-15 22:42:34.753,1.562548,1.692927,1.696177,1.689302
2020-11-15 22:42:34.770,1.565423,1.696552,1.702177,1.687176
2020-11-15 22:42:34.787,1.564548,1.704927,1.704302,1.687551
2020-11-15 22:42:34.804,1.562298,1.699802,1.714052,1.687301
2020-11-15 22:42:34.821,1.564173,1.698302,1.709302,1.687802
2020-11-15 22:42:34.838,1.562298,1.689802,1.708177,1.689177
2020-11-15 22:42:34.855,1.561423,1.691052,1.703177,1.688302
2020-11-15 22:42:34.872,1.566673,1.691927,1.698052,1.688302
2020-11-15 22:42:34.889,1.565048,1.702302,1.701927,1.687051
2020-11-15 22:42:34.906,1.563923,1.700427,1.704302,1.687176
2020-11-15 22:42:34.923,1.564548,1.700302,1.714427,1.687802
2020-11-15 22:42:34.940,1.564673,1.695177,1.709427,1.689302
2020-11-15 22:42:34.957,1.563173,1.686926,1.708177,1.688552
2020-11-15 22:42:34.974,1.564173,1.692927,1.700677,1.688427
2020-11-15 22:42:34.992,1.566923,1.694427,1.699677,1.687927
2020-11-15 22:42:35.009,1.563798,1.703927,1.701552,1.686801
2020-11-15 22:42:35.026,1.564173,1.700927,1.705052,1.687677
2020-11-15 22:42:35.043,1.563048,1.699427,1.714177,1.687551
2020-11-15 22:42:35.060,1.563048,1.694177,1.708427,1.689677
2020-11-15 22:42:35.077,1.561923,1.687927,1.705177,1.689177
2020-11-15 22:42:35.094,1.565798,1.692927,1.695677,1.688052
2020-11-15 22:42:35.111,1.564423,1.695177,1.702552,1.687176
2020-11-15 22:42:35.128,1.564173,1.704427,1.702927,1.686301
2020-11-15 22:42:35.145,1.564548,1.700677,1.712552,1.687551
2020-11-15 22:42:35.162,1.565923,1.699302,1.709677,1.688052
2020-11-15 22:42:35.179,1.563173,1.692427,1.708802,1.689802
2020-11-15 22:42:35.196,1.562923,1.689927,1.706177,1.688552
2020-11-15 22:42:35.213,1.563798,1.693052,1.695177,1.688802
2020-11-15 22:42:35.230,1.564673,1.696677,1.702052,1.687426
2020-11-15 22:42:35.247,1.564048,1.705302,1.703177,1.687551
2020-11-15 22:42:35.265,1.564298,1.699927,1.713052,1.687301
2020-11-15 22:42:35.282,1.565298,1.698552,1.709552,1.687677
2020-11-15 22:42:35.299,1.562423,1.689802,1.708052,1.688927
2020-11-15 22:42:35.316,1.563048,1.692177,1.702677,1.688052
2020-11-15 22:42:35.333,1.565423,1.692802,1.697927,1.687802
2020-11-15 22:42:35.350,1.564673,1.696802,1.702052,1.686551
2020-11-15 22:42:35.367,1.564548,1.705677,1.704177,1.687551
2020-11-15 22:42:35.384,1.562798,1.698802,1.714302,1.687176
2020-11-15 22:42:35.401,1.562298,1.695302,1.709802,1.689927
2020-11-15 22:42:35.418,1.562923,1.686426,1.708427,1.688927
2020-11-15 22:42:35.435,1.564173,1.693052,1.700802,1.688677
2020-11-15 22:42:35.452,1.566173,1.692302,1.695927,1.688802
2020-11-15 22:42:35.470,1.563798,1.698302,1.701552,1.686926
2020-11-15 22:42:35.487,1.564173,1.704677,1.702802,1.687551
2020-11-15 22:42:35.504,1.562548,1.699302,1.711677,1.687551
2020-11-15 22:42:35.521,1.565173,1.696802,1.709802,1.688677
2020-11-15 22:42:35.538,1.563923,1.688427,1.707927,1.689302
2020-11-15 22:42:35.555,1.563298,1.691927,1.703677,1.688427
2020-11-15 22:42:35.572,1.564423,1.693177,1.695552,1.688052
2020-11-15 22:42:35.589,1.564798,1.699927,1.701302,1.686926
2020-11-15 22:42:35.606,1.564548,1.702302,1.706552,1.687176
2020-11-15 22:42:35.623,1.564423,1.699427,1.715677,1.687677
2020-11-15 22:42:35.640,1.564298,1.696052,1.708927,1.688427
2020-11-15 22:42:35.657,1.562298,1.687301,1.707052,1.688677
2020-11-15 22:42:35.675,1.563923,1.692302,1.697802,1.688427
2020-11-15 22:42:35.692,1.565548,1.693177,1.700927,1.687802
2020-11-15 22:42:35.709,1.563798,1.701927,1.702552,1.686176
2020-11-15 22:42:35.726,1.563923,1.699677,1.708177,1.686551
2020-11-15 22:42:35.743,1.564298,1.699177,1.712677,1.687176
2020-11-15 22:42:35.760,1.562298,1.694052,1.708802,1.689677
2020-11-15 22:42:35.777,1.562173,1.692177,1.705677,1.688802
2020-11-15 22:42:35.794,1.564798,1.693052,1.696802,1.689052
2020-11-15 22:42:35.811,1.565673,1.697177,1.701427,1.687051
2020-11-15 22:42:35.828,1.565173,1.706427,1.702552,1.687802
2020-11-15 22:42:35.845,1.563798,1.699427,1.709052,1.687677
2020-11-15 22:42:35.862,1.560548,1.697552,1.710302,1.688427
2020-11-15 22:42:35.879,1.562548,1.689677,1.708927,1.690552
2020-11-15 22:42:35.896,1.563548,1.692927,1.704552,1.688552
2020-11-15 22:42:35.913,1.566173,1.693177,1.695552,1.688302
2020-11-15 22:42:35.930,1.564923,1.697927,1.700677,1.686676
2020-11-15 22:42:35.947,1.564048,1.704552,1.702802,1.687426
2020-11-15 22:42:35.964,1.563298,1.699427,1.711302,1.687802
2020-11-15 22:42:35.981,1.563923,1.697052,1.709177,1.688802
2020-11-15 22:42:35.998,1.563048,1.687927,1.708052,1.689677
2020-11-15 22:42:36.015,1.562173,1.691802,1.698802,1.688302
2020-11-15 22:42:36.032,1.566548,1.693052,1.701427,1.688302
2020-11-15 22:42:36.049,1.565048,1.699677,1.702552,1.686676
2020-11-15 22:42:36.066,1.563798,1.702427,1.706302,1.687551
2020-11-15 22:42:36.083,1.564798,1.698802,1.715052,1.687176
2020-11-15 22:42:36.100,1.562548,1.695552,1.708427,1.688302
2020-11-15 22:42:36.117,1.563548,1.686301,1.706802,1.688052
2020-11-15 22:42:36.134,1.564173,1.691302,1.697552,1.688677
2020-11-15 22:42:36.151,1.566423,1.693177,1.701927,1.687301
2020-11-15 22:42:36.169,1.566298,1.702177,1.702052,1.687426
2020-11-15 22:42:36.186,1.564298,1.699927,1.707927,1.687426
2020-11-15 22:42:36.203,1.563798,1.698802,1.713427,1.688427
2020-11-15 22:42:36.220,1.563798,1.690802,1.708927,1.689927
2020-11-15 22:42:36.237,1.564423,1.692052,1.705302,1.689177
2020-11-15 22:42:36.254,1.564173,1.692927,1.696552,1.688802
2020-11-15 22:42:36.271,1.566173,1.697427,1.700677,1.687176
2020-11-15 22:42:36.289,1.563923,1.703677,1.700927,1.686426
2020-11-15 22:42:36.306,1.562923,1.700052,1.704677,1.687802
2020-11-15 22:42:36.323,1.563423,1.699302,1.715302,1.687802
2020-11-15 22:42:36.340,1.563423,1.694052,1.708302,1.689177
2020-11-15 22:42:36.357,1.562673,1.688427,1.705427,1.688802
2020-11-15 22:42:36.374,1.563923,1.692677,1.695552,1.687927
2020-11-15 22:42:36.391,1.565298,1.695052,1.701677,1.687176
2020-11-15 22:42:36.408,1.564548,1.703927,1.702927,1.686551
2020-11-15 22:42:36.425,1.564298,1.700802,1.712177,1.687301
2020-11-15 22:42:36.442,1.563923,1.698802,1.709927,1.687802
2020-11-15 22:42:36.459,1.562173,1.692177,1.708552,1.689427
2020-11-15 22:42:36.476,1.563798,1.689802,1.704302,1.688177
2020-11-15 22:42:36.493,1.566173,1.692302,1.695677,1.688177
2020-11-15 22:42:36.510,1.565173,1.695427,1.702427,1.686551
2020-11-15 22:42:36.527,1.565423,1.704552,1.703677,1.687677
2020-11-15 22:42:36.544,1.564298,1.699802,1.713052,1.687551
2020-11-15 22:42:36.562,1.563923,1.696427,1.709552,1.688927
2020-11-15 22:42:36.579,1.563923,1.687551,1.708177,1.688927
2020-11-15 22:42:36.596,1.564048,1.692177,1.703302,1.688927
2020-11-15 22:42:36.613,1.567173,1.693802,1.697427,1.688052
2020-11-15 22:42:36.630,1.566298,1.702177,1.701552,1.686801
2020-11-15 22:42:36.647,1.563923,1.700677,1.704552,1.688052
2020-11-15 22:42:36.664,1.562548,1.699552,1.713052,1.687426
2020-11-15 22:42:36.681,1.564673,1.695302,1.709177,1.689302
2020-11-15 22:42:36.698,1.564298,1.686551,1.705927,1.688552
2020-11-15 22:42:36.715,1.565923,1.692427,1.696802,1.688427
2020-11-15 22:42:36.732,1.566423,1.694052,1.701677,1.688052
2020-11-15 22:42:36.749,1.566923,1.703802,1.702677,1.686176
2020-11-15 22:42:36.766,1.564173,1.699677,1.709552,1.687051
2020-11-15 22:42:36.783,1.563548,1.698677,1.711427,1.687551
2020-11-15 22:42:36.800,1.563173,1.694177,1.708677,1.688802
2020-11-15 22:42:36.817,1.564048,1.687802,1.704427,1.688177
2020-11-15 22:42:36.834,1.565298,1.692302,1.696177,1.688427
2020-11-15 22:42:36.851,1.565423,1.697802,1.701802,1.687051
2020-11-15 22:42:36.868,1.565173,1.705052,1.702802,1.687677
2020-11-15 22:42:36.885,1.564798,1.699802,1.711427,1.687551
2020-11-15 22:42:36.902,1.563923,1.697427,1.709177,1.688552
2020-11-15 22:42:36.919,1.564048,1.688427,1.709052,1.689052
2020-11-15 22:42:36.936,1.564298,1.692052,1.704927,1.689177
2020-11-15 22:42:36.953,1.565923,1.694052,1.694302,1.687927
2020-11-15 22:42:36.970,1.566173,1.700302,1.701927,1.687426
2020-11-15 22:42:36.988,1.563423,1.702677,1.703052,1.687301
2020-11-15 22:42:37.005,1.565673,1.699302,1.712677,1.687677
2020-11-15 22:42:37.022,1.566673,1.696302,1.709677,1.688677
2020-11-15 22:42:37.039,1.560673,1.688052,1.708052,1.689052
2020-11-15 22:42:37.056,1.565298,1.691927,1.702427,1.688927
2020-11-15 22:42:37.073,1.567298,1.693052,1.695802,1.687802
2020-11-15 22:42:37.090,1.566048,1.701677,1.702052,1.687051
2020-11-15 22:42:37.107,1.565048,1.705802,1.701552,1.687426
2020-11-15 22:42:37.125,1.565548,1.699927,1.709177,1.688427
2020-11-15 22:42:37.142,1.565048,1.698677,1.709552,1.688427
2020-11-15 22:42:37.159,1.564923,1.689677,1.708677,1.689552
2020-11-15 22:42:37.176,1.565048,1.692052,1.702177,1.688677
2020-11-15 22:42:37.193,1.568673,1.692802,1.699677,1.687301
2020-11-15 22:42:37.210,1.566173,1.698427,1.702302,1.686926
2020-11-15 22:42:37.227,1.566423,1.705177,1.705802,1.687677
2020-11-15 22:42:37.244,1.563423,1.699427,1.714802,1.687301
2020-11-15 22:42:37.261,1.564298,1.697427,1.710177,1.688052
2020-11-15 22:42:37.278,1.564798,1.688552,1.708427,1.689177
2020-11-15 22:42:37.295,1.565298,1.691552,1.699052,1.687677
2020-11-15 22:42:37.313,1.566423,1.692552,1.700927,1.687802
2020-11-15 22:42:37.330,1.565298,1.699677,1.702177,1.687677
2020-11-15 22:42:37.347,1.567048,1.700552,1.706302,1.688052
2020-11-15 22:42:37.364,1.565673,1.699802,1.715677,1.688177
2020-11-15 22:42:37.381,1.564423,1.693552,1.709927,1.690177
2020-11-15 22:42:37.398,1.564423,1.690677,1.707177,1.688677
2020-11-15 22:42:37.415,1.565673,1.693427,1.698052,1.688552
2020-11-15 22:42:37.432,1.567798,1.695802,1.702052,1.687677
2020-11-15 22:42:37.449,1.565798,1.705052,1.702177,1.687301
2020-11-15 22:42:37.466,1.565548,1.700052,1.707052,1.686926
2020-11-15 22:42:37.483,1.564548,1.699177,1.713927,1.686801
2020-11-15 22:42:37.500,1.565173,1.695177,1.709302,1.689552
2020-11-15 22:42:37.517,1.563798,1.686176,1.706177,1.688802
2020-11-15 22:42:37.534,1.566548,1.693177,1.697302,1.687927
2020-11-15 22:42:37.552,1.567048,1.696552,1.700927,1.687551
2020-11-15 22:42:37.569,1.565548,1.705552,1.702427,1.688052
2020-11-15 22:42:37.586,1.565173,1.699802,1.709177,1.687677
2020-11-15 22:42:37.603,1.565673,1.698802,1.710552,1.688302
2020-11-15 22:42:37.620,1.563048,1.689802,1.708677,1.690177
2020-11-15 22:42:37.637,1.563298,1.692052,1.704802,1.688927
2020-11-15 22:42:37.654,1.567173,1.693302,1.695302,1.688427
2020-11-15 22:42:37.671,1.564548,1.697677,1.702552,1.687051
2020-11-15 22:42:37.688,1.565798,1.704677,1.705677,1.687802
2020-11-15 22:42:37.705,1.566923,1.699802,1.715177,1.687927
2020-11-15 22:42:37.722,1.565173,1.697177,1.709427,1.687927
2020-11-15 22:42:37.739,1.565548,1.688302,1.708302,1.688927
2020-11-15 22:42:37.756,1.564048,1.691677,1.699302,1.688427
2020-11-15 22:42:37.773,1.566798,1.692677,1.701177,1.687677
2020-11-15 22:42:37.790,1.565673,1.699427,1.702552,1.686551
2020-11-15 22:42:37.807,1.566298,1.702427,1.705802,1.687176
2020-11-15 22:42:37.824,1.565173,1.699177,1.716052,1.686801
2020-11-15 22:42:37.841,1.565173,1.696177,1.708552,1.689302
2020-11-15 22:42:37.858,1.564923,1.689302,1.707302,1.689052
2020-11-15 22:42:37.875,1.566673,1.692677,1.697177,1.688302
2020-11-15 22:42:37.892,1.567548,1.696052,1.701052,1.687051
2020-11-15 22:42:37.909,1.564798,1.705302,1.701802,1.687426
2020-11-15 22:42:37.926,1.566173,1.700177,1.707552,1.687551
2020-11-15 22:42:37.944,1.565173,1.699927,1.714177,1.687426
2020-11-15 22:42:37.962,1.564673,1.695927,1.708927,1.689427
2020-11-15 22:42:37.979,1.563923,1.686926,1.708052,1.688052
2020-11-15 22:42:37.996,1.565298,1.693177,1.700802,1.688677
2020-11-15 22:42:38.013,1.567673,1.694677,1.699052,1.688552
2020-11-15 22:42:38.030,1.564548,1.703427,1.701427,1.686301
2020-11-15 22:42:38.047,1.565673,1.700552,1.709552,1.687927
2020-11-15 22:42:38.064,1.565923,1.699427,1.711302,1.687927
2020-11-15 22:42:38.081,1.564173,1.693927,1.708177,1.689177
2020-11-15 22:42:38.098,1.565298,1.687301,1.705302,1.689052
2020-11-15 22:42:38.115,1.565423,1.692427,1.696427,1.688677
2020-11-15 22:42:38.132,1.565048,1.694677,1.701302,1.687677
2020-11-15 22:42:38.149,1.568548,1.704052,1.702677,1.686801
2020-11-15 22:42:38.166,1.566548,1.701052,1.712177,1.686676
2020-11-15 22:42:38.183,1.564173,1.698927,1.710052,1.687426
2020-11-15 22:42:38.200,1.563423,1.691802,1.709052,1.688802
2020-11-15 22:42:38.217,1.562548,1.692177,1.704677,1.688552
2020-11-15 22:42:38.234,1.565173,1.693427,1.695677,1.688302
2020-11-15 22:42:38.251,1.565048,1.699802,1.701927,1.687176
2020-11-15 22:42:38.268,1.565423,1.702302,1.702927,1.687677
2020-11-15 22:42:38.285,1.564173,1.699177,1.713427,1.687677
2020-11-15 22:42:38.302,1.563798,1.695927,1.709052,1.688552
2020-11-15 22:42:38.319,1.563423,1.687301,1.708052,1.688927
2020-11-15 22:42:38.336,1.563423,1.692427,1.702802,1.688677
2020-11-15 22:42:38.353,1.565548,1.693427,1.696927,1.687802
2020-11-15 22:42:38.370,1.566673,1.701052,1.701677,1.686926
2020-11-15 22:42:38.387,1.566173,1.700927,1.704552,1.687426
2020-11-15 22:42:38.405,1.564673,1.699677,1.713177,1.687677
2020-11-15 22:42:38.422,1.563798,1.695677,1.708927,1.689052
2020-11-15 22:42:38.439,1.563048,1.685926,1.707927,1.688177
2020-11-15 22:42:38.456,1.564048,1.692302,1.701052,1.688927
2020-11-15 22:42:38.473,1.567173,1.694427,1.701302,1.687927
2020-11-15 22:42:38.490,1.564798,1.703052,1.702552,1.686176
2020-11-15 22:42:38.507,1.563798,1.700552,1.708802,1.687051
2020-11-15 22:42:38.524,1.564048,1.699552,1.712052,1.687551
2020-11-15 22:42:38.541,1.566298,1.694052,1.708552,1.689427
2020-11-15 22:42:38.558,1.563548,1.687426,1.705677,1.687677
2020-11-15 22:42:38.575,1.565423,1.692802,1.696302,1.687927
2020-11-15 22:42:38.592,1.567423,1.694552,1.700802,1.687051
2020-11-15 22:42:38.609,1.566298,1.702927,1.702552,1.686176
2020-11-15 22:42:38.626,1.564923,1.699927,1.711427,1.687677
2020-11-15 22:42:38.643,1.565798,1.697677,1.709677,1.688552
2020-11-15 22:42:38.660,1.564798,1.688552,1.708927,1.689802
2020-11-15 22:42:38.677,1.565173,1.691802,1.704677,1.688927
2020-11-15 22:42:38.694,1.565423,1.693052,1.695927,1.688427
2020-11-15 22:42:38.711,1.565048,1.698927,1.701427,1.686551
2020-11-15 22:42:38.728,1.565923,1.702927,1.702927,1.686926
2020-11-15 22:42:38.745,1.564673,1.699302,1.712802,1.687927
2020-11-15 22:42:38.762,1.565173,1.697927,1.713177,1.687802
2020-11-15 22:42:38.780,1.565298,1.691677,1.707927,1.690052
2020-11-15 22:42:38.798,1.564548,1.691552,1.705552,1.688552
2020-11-15 22:42:38.815,1.567423,1.692927,1.696552,1.689177
2020-11-15 22:42:38.832,1.568173,1.696302,1.702177,1.687426
2020-11-15 22:42:38.849,1.564673,1.705552,1.703552,1.687551
2020-11-15 22:42:38.866,1.564298,1.699802,1.714177,1.687677
2020-11-15 22:42:38.883,1.564923,1.698427,1.709802,1.687551
2020-11-15 22:42:38.900,1.563923,1.688802,1.708302,1.689302
2020-11-15 22:42:38.917,1.566173,1.692052,1.701927,1.688177
2020-11-15 22:42:38.934,1.567173,1.692552,1.698552,1.688177
2020-11-15 22:42:38.951,1.564798,1.697052,1.701677,1.686176
2020-11-15 22:42:38.968,1.565673,1.704052,1.705052,1.687301
2020-11-15 22:42:38.985,1.564798,1.698802,1.714927,1.687927
2020-11-15 22:42:39.002,1.564673,1.695302,1.709552,1.689427
2020-11-15 22:42:39.019,1.564548,1.688052,1.707927,1.688802
2020-11-15 22:42:39.036,1.564548,1.692427,1.699677,1.688177
2020-11-15 22:42:39.053,1.567923,1.694802,1.700802,1.687551
2020-11-15 22:42:39.070,1.564798,1.704177,1.702052,1.686426
2020-11-15 22:42:39.087,1.564548,1.700052,1.705302,1.687677
2020-11-15 22:42:39.104,1.563923,1.698677,1.715052,1.687927
2020-11-15 22:42:39.121,1.564548,1.693427,1.709177,1.689177
2020-11-15 22:42:39.138,1.565423,1.688802,1.706802,1.688802
2020-11-15 22:42:39.155,1.564298,1.692802,1.697052,1.688427
2020-11-15 22:42:39.172,1.567923,1.695177,1.699677,1.687551
2020-11-15 22:42:39.189,1.565298,1.704677,1.702802,1.686926
2020-11-15 22:42:39.206,1.566048,1.700052,1.713177,1.686926
2020-11-15 22:42:39.223,1.564298,1.699302,1.709177,1.687551
2020-11-15 22:42:39.240,1.563423,1.691552,1.708177,1.689552
2020-11-15 22:42:39.257,1.563673,1.690927,1.703677,1.688427
2020-11-15 22:42:39.274,1.566673,1.692052,1.696302,1.687927
2020-11-15 22:42:39.291,1.565548,1.695927,1.702052,1.686551
2020-11-15 22:42:39.308,1.564798,1.705302,1.704302,1.686926
2020-11-15 22:42:39.325,1.564048,1.698802,1.713677,1.686676
2020-11-15 22:42:39.343,1.565923,1.698052,1.709677,1.687301
2020-11-15 22:42:39.360,1.564048,1.688302,1.708927,1.688427
2020-11-15 22:42:39.377,1.563798,1.692552,1.701927,1.688677
2020-11-15 22:42:39.394,1.568548,1.693677,1.698427,1.687802
2020-11-15 22:42:39.411,1.565048,1.703302,1.701427,1.686551
2020-11-15 22:42:39.428,1.564923,1.700427,1.705052,1.688177
2020-11-15 22:42:39.445,1.565673,1.699552,1.714302,1.687426
2020-11-15 22:42:39.462,1.565673,1.695927,1.708552,1.689552
2020-11-15 22:42:39.479,1.566173,1.687051,1.707677,1.688302
2020-11-15 22:42:39.496,1.563798,1.692552,1.699427,1.689177
2020-11-15 22:42:39.513,1.567173,1.694802,1.699802,1.687551
2020-11-15 22:42:39.530,1.564673,1.703677,1.702302,1.687051
2020-11-15 22:42:39.547,1.565673,1.700427,1.710302,1.687301
2020-11-15 22:42:39.564,1.565548,1.698927,1.710052,1.687802
2020-11-15 22:42:39.581,1.565673,1.693052,1.708927,1.687802
2020-11-15 22:42:39.599,1.566298,1.687176,1.707302,1.688927
2020-11-15 22:42:39.616,1.565298,1.691802,1.698802,1.688552
2020-11-15 22:42:39.633,1.568673,1.693677,1.701052,1.688052
2020-11-15 22:42:39.650,1.566423,1.700427,1.702177,1.686051
2020-11-15 22:42:39.667,1.565923,1.700302,1.707677,1.686801
2020-11-15 22:42:39.684,1.564173,1.699302,1.714552,1.687426
2020-11-15 22:42:39.701,1.565548,1.695927,1.708802,1.689552
2020-11-15 22:42:39.718,1.563923,1.691177,1.706302,1.688802
2020-11-15 22:42:39.735,1.567298,1.693302,1.697302,1.688802
2020-11-15 22:42:39.752,1.567298,1.696802,1.700802,1.687176
2020-11-15 22:42:39.769,1.565298,1.706427,1.702427,1.687677
2020-11-15 22:42:39.787,1.565298,1.699927,1.708927,1.687426
2020-11-15 22:42:39.804,1.567298,1.698802,1.712552,1.688302
2020-11-15 22:42:39.821,1.566173,1.690177,1.708427,1.689177
2020-11-15 22:42:39.838,1.564173,1.692052,1.705677,1.689177
2020-11-15 22:42:39.855,1.566923,1.693552,1.696177,1.687551
2020-11-15 22:42:39.872,1.566048,1.697552,1.701302,1.687051
2020-11-15 22:42:39.889,1.566298,1.705677,1.702427,1.686926
2020-11-15 22:42:39.906,1.565048,1.700052,1.710677,1.687426
2020-11-15 22:42:39.923,1.564298,1.697802,1.709927,1.688552
2020-11-15 22:42:39.940,1.565173,1.688927,1.708427,1.689427
2020-11-15 22:42:39.957,1.564673,1.692177,1.704427,1.688052
2020-11-15 22:42:39.974,1.566798,1.692677,1.695177,1.688052
2020-11-15 22:42:39.991,1.565298,1.699427,1.701677,1.687426
2020-11-15 22:42:40.008,1.565423,1.703177,1.702552,1.687677
2020-11-15 22:42:40.025,1.566048,1.699927,1.712052,1.687176
2020-11-15 22:42:40.043,1.565298,1.696302,1.709177,1.689302
2020-11-15 22:42:40.060,1.566423,1.687802,1.708052,1.689302
2020-11-15 22:42:40.077,1.564798,1.692427,1.697927,1.688427
2020-11-15 22:42:40.094,1.568923,1.692677,1.700927,1.688052
2020-11-15 22:42:40.111,1.565423,1.699802,1.702427,1.686426
2020-11-15 22:42:40.128,1.566173,1.701427,1.707177,1.687051
2020-11-15 22:42:40.145,1.565298,1.699302,1.715052,1.687802
2020-11-15 22:42:40.162,1.565298,1.695052,1.708427,1.688677
2020-11-15 22:42:40.179,1.564548,1.686926,1.707052,1.688177
2020-11-15 22:42:40.196,1.566173,1.691927,1.697927,1.688302
2020-11-15 22:42:40.213,1.567798,1.692552,1.700427,1.687426
2020-11-15 22:42:40.230,1.566048,1.702927,1.702427,1.686176
2020-11-15 22:42:40.247,1.566173,1.699802,1.708677,1.687677
2020-11-15 22:42:40.264,1.566298,1.698802,1.712427,1.688302
2020-11-15 22:42:40.281,1.565548,1.689427,1.708552,1.690177
2020-11-15 22:42:40.298,1.563798,1.691677,1.705302,1.688302
2020-11-15 22:42:40.315,1.565423,1.693177,1.695927,1.688427
2020-11-15 22:42:40.332,1.567298,1.697177,1.701427,1.686426
2020-11-15 22:42:40.349,1.566048,1.705677,1.701802,1.687426
2020-11-15 22:42:40.366,1.566173,1.699802,1.709552,1.687551
2020-11-15 22:42:40.383,1.565298,1.697802,1.709302,1.688552
2020-11-15 22:42:40.400,1.564173,1.688927,1.708052,1.689427
2020-11-15 22:42:40.417,1.564548,1.688052,1.704927,1.689427
2020-11-15 22:42:40.436,1.564798,1.693052,1.695427,1.688552
2020-11-15 22:42:40.453,1.566298,1.695802,1.701927,1.687551
2020-11-15 22:42:40.470,1.566048,1.704177,1.702927,1.686926
2020-11-15 22:42:40.487,1.565798,1.699927,1.712552,1.687426
2020-11-15 22:42:40.504,1.565673,1.698802,1.709677,1.688052
2020-11-15 22:42:40.521,1.564298,1.691552,1.708552,1.689802
2020-11-15 22:42:40.538,1.563798,1.690927,1.703927,1.687677
2020-11-15 22:42:40.555,1.567423,1.692427,1.696552,1.688302
2020-11-15 22:42:40.572,1.565673,1.696552,1.702177,1.686926
2020-11-15 22:42:40.589,1.565173,1.701177,1.704177,1.687551
2020-11-15 22:42:40.606,1.564798,1.699802,1.712927,1.688052
2020-11-15 22:42:40.623,1.564548,1.696177,1.709802,1.689302
2020-11-15 22:42:40.640,1.565048,1.687301,1.708677,1.689177
2020-11-15 22:42:40.657,1.564673,1.692802,1.702302,1.688552
2020-11-15 22:42:40.674,1.567923,1.694177,1.697302,1.688052
2020-11-15 22:42:40.691,1.566548,1.703802,1.701802,1.686801
2020-11-15 22:42:40.708,1.565798,1.699802,1.704302,1.687677
2020-11-15 22:42:40.725,1.564423,1.699302,1.712677,1.687301
2020-11-15 22:42:40.742,1.564673,1.695302,1.708927,1.689302
2020-11-15 22:42:40.759,1.564923,1.687176,1.705802,1.688802
2020-11-15 22:42:40.776,1.565798,1.692802,1.697177,1.688052
2020-11-15 22:42:40.793,1.566798,1.694802,1.701927,1.687176
2020-11-15 22:42:40.810,1.565298,1.703677,1.702302,1.686801
2020-11-15 22:42:40.827,1.567298,1.700177,1.710677,1.687301
2020-11-15 22:42:40.844,1.566798,1.699177,1.710552,1.687301
2020-11-15 22:42:40.861,1.565923,1.693677,1.708677,1.689177
2020-11-15 22:42:40.878,1.566048,1.688052,1.705552,1.688427
2020-11-15 22:42:40.895,1.567548,1.692927,1.695427,1.688052
2020-11-15 22:42:40.912,1.567048,1.699177,1.702302,1.687176
2020-11-15 22:42:40.929,1.565923,1.703927,1.703052,1.687677
2020-11-15 22:42:40.946,1.565673,1.699802,1.711552,1.687927
2020-11-15 22:42:40.963,1.565423,1.697052,1.709302,1.688552
2020-11-15 22:42:40.980,1.565048,1.688552,1.707927,1.688552
2020-11-15 22:42:40.997,1.564048,1.692302,1.703677,1.688427
2020-11-15 22:42:41.014,1.567298,1.693552,1.695552,1.688302
2020-11-15 22:42:41.031,1.566798,1.700052,1.701427,1.686551
2020-11-15 22:42:41.049,1.566173,1.701677,1.703552,1.687051
2020-11-15 22:42:41.066,1.566173,1.699927,1.713302,1.687551
2020-11-15 22:42:41.083,1.566173,1.696052,1.709052,1.688427
2020-11-15 22:42:41.100,1.564923,1.686926,1.707302,1.688552
2020-11-15 22:42:41.117,1.565673,1.692177,1.698427,1.688552
2020-11-15 22:42:41.134,1.567298,1.693552,1.701552,1.688052
2020-11-15 22:42:41.151,1.567173,1.702552,1.702677,1.685801
2020-11-15 22:42:41.168,1.566173,1.700177,1.707802,1.686801
2020-11-15 22:42:41.185,1.565048,1.698802,1.712927,1.687176
2020-11-15 22:42:41.202,1.563173,1.695052,1.708677,1.689177
2020-11-15 22:42:41.219,1.565173,1.691552,1.705677,1.688927
2020-11-15 22:42:41.236,1.566798,1.692927,1.697177,1.688427
2020-11-15 22:42:41.254,1.567548,1.692552,1.700302,1.687802
2020-11-15 22:42:41.271,1.565048,1.703552,1.701802,1.687051
2020-11-15 22:42:41.288,1.565298,1.701052,1.705552,1.687551
2020-11-15 22:42:41.305,1.565798,1.699427,1.715427,1.687426
2020-11-15 22:42:41.322,1.563923,1.694552,1.708427,1.689552
2020-11-15 22:42:41.339,1.564548,1.688177,1.707677,1.688552
2020-11-15 22:42:41.356,1.567048,1.693052,1.697802,1.688927
2020-11-15 22:42:41.373,1.568923,1.696052,1.701927,1.687802
2020-11-15 22:42:41.390,1.565423,1.704927,1.703427,1.686801
2020-11-15 22:42:41.407,1.565548,1.700177,1.711802,1.686801
2020-11-15 22:42:41.424,1.566298,1.699177,1.710302,1.687802
2020-11-15 22:42:41.441,1.563923,1.692802,1.708552,1.689302
2020-11-15 22:42:41.458,1.564298,1.690802,1.704802,1.687927
2020-11-15 22:42:41.475,1.565673,1.692427,1.695677,1.687802
2020-11-15 22:42:41.492,1.565673,1.696052,1.702302,1.686176
2020-11-15 22:42:41.509,1.564923,1.705052,1.703552,1.687551
2020-11-15 22:42:41.526,1.564923,1.700052,1.713677,1.687677
2020-11-15 22:42:41.543,1.565423,1.696427,1.710052,1.688427
2020-11-15 22:42:41.560,1.564673,1.687426,1.708177,1.689677
2020-11-15 22:42:41.577,1.564173,1.692552,1.702552,1.688427
2020-11-15 22:42:41.594,1.569048,1.693802,1.697552,1.687551
2020-11-15 22:42:41.611,1.565173,1.702177,1.701927,1.686301
2020-11-15 22:42:41.629,1.565048,1.700427,1.704802,1.687301
2020-11-15 22:42:41.646,1.564423,1.700052,1.713302,1.687802
2020-11-15 22:42:41.663,1.564048,1.695927,1.709677,1.689927
2020-11-15 22:42:41.680,1.565048,1.686551,1.707927,1.688552
2020-11-15 22:42:41.697,1.566048,1.693177,1.700177,1.688927
2020-11-15 22:42:41.714,1.567048,1.694302,1.701177,1.688052
2020-11-15 22:42:41.731,1.565923,1.703177,1.702677,1.686926
2020-11-15 22:42:41.748,1.565423,1.700427,1.709802,1.687176
2020-11-15 22:42:41.765,1.564423,1.699177,1.711177,1.687677
2020-11-15 22:42:41.782,1.564923,1.694427,1.708802,1.689552
2020-11-15 22:42:41.799,1.565298,1.688177,1.705802,1.687927
2020-11-15 22:42:41.816,1.566548,1.692802,1.696427,1.688052
2020-11-15 22:42:41.833,1.565423,1.695177,1.701802,1.687677
2020-11-15 22:42:41.850,1.567798,1.703802,1.702677,1.686426
2020-11-15 22:42:41.867,1.564423,1.699802,1.711177,1.687426
2020-11-15 22:42:41.884,1.564798,1.699427,1.710427,1.688677
2020-11-15 22:42:41.901,1.564173,1.688177,1.708677,1.689552
2020-11-15 22:42:41.918,1.564048,1.689427,1.704677,1.688177
2020-11-15 22:42:41.935,1.567423,1.692552,1.695552,1.688302
2020-11-15 22:42:41.952,1.567798,1.700302,1.702177,1.686676
2020-11-15 22:42:41.969,1.567423,1.703302,1.703802,1.688177
2020-11-15 22:42:41.986,1.566923,1.699302,1.713177,1.687551
2020-11-15 22:42:42.003,1.564923,1.696802,1.709927,1.688927
2020-11-15 22:42:42.020,1.563048,1.687802,1.708677,1.689552
2020-11-15 22:42:42.037,1.564423,1.693177,1.702677,1.688177
2020-11-15 22:42:42.054,1.567423,1.693802,1.696677,1.687927
2020-11-15 22:42:42.072,1.566798,1.696177,1.701427,1.686426
2020-11-15 22:42:42.090,1.566798,1.703177,1.703302,1.687426
2020-11-15 22:42:42.107,1.565923,1.699927,1.709177,1.687802
2020-11-15 22:42:42.124,1.565423,1.698677,1.711677,1.688052
2020-11-15 22:42:42.141,1.565548,1.689427,1.708552,1.689927
2020-11-15 22:42:42.158,1.565048,1.692427,1.705427,1.689052
2020-11-15 22:42:42.176,1.566673,1.693302,1.695677,1.688677
2020-11-15 22:42:42.193,1.566548,1.698427,1.701552,1.687176
2020-11-15 22:42:42.210,1.565048,1.705177,1.702427,1.687802
2020-11-15 22:42:42.227,1.564423,1.699552,1.711927,1.687301
2020-11-15 22:42:42.244,1.564548,1.697802,1.709677,1.688677
2020-11-15 22:42:42.261,1.566298,1.688677,1.707677,1.689802
2020-11-15 22:42:42.278,1.565923,1.692052,1.699302,1.688927
2020-11-15 22:42:42.295,1.566173,1.693552,1.700802,1.688427
2020-11-15 22:42:42.312,1.566048,1.700302,1.702177,1.687051
2020-11-15 22:42:42.329,1.566048,1.702677,1.706052,1.687426
2020-11-15 22:42:42.346,1.566173,1.699677,1.716177,1.687176
2020-11-15 22:42:42.363,1.565548,1.696427,1.708802,1.688552
2020-11-15 22:42:42.380,1.564298,1.687551,1.707427,1.688927
2020-11-15 22:42:42.397,1.564548,1.692052,1.698427,1.688052
2020-11-15 22:42:42.414,1.567298,1.693177,1.701677,1.687677
2020-11-15 22:42:42.431,1.564423,1.701427,1.702302,1.687551
2020-11-15 22:42:42.448,1.565423,1.700552,1.707177,1.687677
2020-11-15 22:42:42.465,1.565798,1.699427,1.714302,1.688177
2020-11-15 22:42:42.482,1.565423,1.691302,1.708427,1.689552
2020-11-15 22:42:42.499,1.564548,1.691427,1.706552,1.688177
2020-11-15 22:42:42.516,1.565423,1.693052,1.696927,1.688677
2020-11-15 22:42:42.533,1.566923,1.696552,1.700802,1.687677
2020-11-15 22:42:42.550,1.565048,1.706677,1.701802,1.687677
2020-11-15 22:42:42.567,1.564673,1.700552,1.708552,1.687677
2020-11-15 22:42:42.584,1.564673,1.697927,1.711552,1.688552
2020-11-15 22:42:42.601,1.564048,1.689427,1.708427,1.689802
2020-11-15 22:42:42.618,1.564173,1.692177,1.701802,1.688927
2020-11-15 22:42:42.635,1.566673,1.693177,1.699177,1.688177
2020-11-15 22:42:42.652,1.565048,1.697552,1.702552,1.686801
2020-11-15 22:42:42.669,1.564923,1.705177,1.705052,1.687176
2020-11-15 22:42:42.686,1.565423,1.699302,1.714552,1.687176
2020-11-15 22:42:42.703,1.564298,1.696927,1.709052,1.688052
2020-11-15 22:42:42.720,1.565298,1.688177,1.708052,1.689552
2020-11-15 22:42:42.737,1.564673,1.691927,1.700552,1.688177
2020-11-15 22:42:42.754,1.566923,1.693302,1.700677,1.687677
2020-11-15 22:42:42.771,1.566798,1.698677,1.702927,1.686551
2020-11-15 22:42:42.789,1.566673,1.703177,1.706302,1.687802
2020-11-15 22:42:42.806,1.564173,1.699302,1.715302,1.687927
2020-11-15 22:42:42.823,1.564923,1.693302,1.709177,1.690052
2020-11-15 22:42:42.840,1.565798,1.689052,1.707302,1.688802
2020-11-15 22:42:42.857,1.564548,1.692552,1.698052,1.688677
2020-11-15 22:42:42.874,1.567923,1.695927,1.701302,1.687802
2020-11-15 22:42:42.891,1.567923,1.704677,1.702052,1.685801
2020-11-15 22:42:42.909,1.564548,1.701177,1.704427,1.688177
2020-11-15 22:42:42.926,1.564798,1.700302,1.713677,1.687426
2020-11-15 22:42:42.943,1.564798,1.696177,1.708802,1.688927
2020-11-15 22:42:42.960,1.563798,1.686926,1.706802,1.689302
2020-11-15 22:42:42.977,1.565798,1.692552,1.697927,1.687927
2020-11-15 22:42:42.994,1.567298,1.694177,1.700177,1.688302
2020-11-15 22:42:43.011,1.567048,1.702802,1.702552,1.686426
2020-11-15 22:42:43.028,1.565673,1.700802,1.708302,1.687426
2020-11-15 22:42:43.045,1.566798,1.699677,1.712552,1.687677
2020-11-15 22:42:43.062,1.564548,1.694302,1.709302,1.689177
2020-11-15 22:42:43.079,1.565798,1.686676,1.705677,1.688177
2020-11-15 22:42:43.096,1.565548,1.692552,1.696177,1.687927
2020-11-15 22:42:43.113,1.566548,1.693927,1.701802,1.687426
2020-11-15 22:42:43.130,1.566548,1.706427,1.702302,1.687176
2020-11-15 22:42:43.147,1.565798,1.699677,1.710802,1.688052
2020-11-15 22:42:43.164,1.565173,1.698302,1.709177,1.688802
2020-11-15 22:42:43.181,1.564548,1.689427,1.708427,1.689177
2020-11-15 22:42:43.198,1.563798,1.691927,1.704552,1.688802
2020-11-15 22:42:43.215,1.565173,1.693302,1.695552,1.688177
2020-11-15 22:42:43.232,1.566548,1.698802,1.701802,1.686926
2020-11-15 22:42:43.249,1.566673,1.703927,1.702677,1.688052
2020-11-15 22:42:43.266,1.562298,1.699677,1.711927,1.687927
2020-11-15 22:42:43.283,1.564798,1.697052,1.709427,1.688677
2020-11-15 22:42:43.301,1.563548,1.688927,1.708052,1.689302
2020-11-15 22:42:43.318,1.565173,1.692177,1.698427,1.688552
2020-11-15 22:42:43.335,1.569173,1.693302,1.701802,1.688427
2020-11-15 22:42:43.352,1.567423,1.700427,1.702552,1.687176
2020-11-15 22:42:43.369,1.565798,1.702427,1.706302,1.687176
2020-11-15 22:42:43.386,1.563923,1.699552,1.715677,1.687927
2020-11-15 22:42:43.403,1.565173,1.696552,1.709177,1.688552
2020-11-15 22:42:43.420,1.565048,1.687051,1.707177,1.688302
2020-11-15 22:42:43.437,1.565298,1.692052,1.697927,1.688427
2020-11-15 22:42:43.454,1.567923,1.693177,1.699927,1.686926
2020-11-15 22:42:43.471,1.566048,1.701927,1.702052,1.685926
2020-11-15 22:42:43.488,1.565423,1.700302,1.708302,1.687551
2020-11-15 22:42:43.505,1.565673,1.699052,1.713677,1.687301
2020-11-15 22:42:43.522,1.564548,1.694927,1.708302,1.689677
2020-11-15 22:42:43.539,1.564798,1.691552,1.706177,1.688427
2020-11-15 22:42:43.556,1.566298,1.693552,1.697677,1.688302
2020-11-15 22:42:43.573,1.568173,1.696677,1.700427,1.687301
2020-11-15 22:42:43.590,1.565423,1.706177,1.702177,1.687426
2020-11-15 22:42:43.607,1.566298,1.699927,1.709552,1.687551
2020-11-15 22:42:43.624,1.565048,1.698552,1.711302,1.688927
2020-11-15 22:42:43.641,1.564798,1.688927,1.708177,1.690427
2020-11-15 22:42:43.658,1.566423,1.691427,1.704677,1.688552
2020-11-15 22:42:43.675,1.566798,1.693177,1.695552,1.688677
2020-11-15 22:42:43.692,1.564548,1.698052,1.701927,1.687677
2020-11-15 22:42:43.709,1.565048,1.705427,1.705427,1.687426
2020-11-15 22:42:43.727,1.565423,1.700177,1.711552,1.687551
2020-11-15 22:42:43.745,1.565798,1.700052,1.710052,1.687927
2020-11-15 22:42:43.762,1.566548,1.692927,1.709302,1.690052
2020-11-15 22:42:43.779,1.564673,1.689927,1.704802,1.688802
2020-11-15 22:42:43.796,1.568173,1.692552,1.696302,1.688177
2020-11-15 22:42:43.813,1.567298,1.696052,1.702427,1.687551
2020-11-15 22:42:43.830,1.567173,1.705177,1.703802,1.687051
2020-11-15 22:42:43.847,1.565673,1.700052,1.712802,1.686551
2020-11-15 22:42:43.864,1.566673,1.698302,1.709302,1.687677
2020-11-15 22:42:43.881,1.565673,1.690802,1.708177,1.689052
2020-11-15 22:42:43.898,1.564298,1.691177,1.704427,1.688802
2020-11-15 22:42:43.915,1.567298,1.693177,1.696552,1.687927
2020-11-15 22:42:43.932,1.566923,1.701177,1.702052,1.687301
2020-11-15 22:42:43.949,1.566173,1.700552,1.703552,1.687677
2020-11-15 22:42:43.966,1.564548,1.699427,1.714302,1.687426
2020-11-15 22:42:43.983,1.565298,1.696177,1.708802,1.689302
2020-11-15 22:42:44.000,1.565048,1.687176,1.707927,1.689552
2020-11-15 22:42:44.017,1.566048,1.693052,1.701552,1.688802
2020-11-15 22:42:44.034,1.567173,1.694052,1.698927,1.687802
2020-11-15 22:42:44.051,1.565423,1.702802,1.701677,1.687426
2020-11-15 22:42:44.068,1.565423,1.700802,1.709052,1.687426
2020-11-15 22:42:44.085,1.564548,1.699177,1.713427,1.687551
2020-11-15 22:42:44.102,1.564173,1.695177,1.709177,1.688927
2020-11-15 22:42:44.119,1.566048,1.686926,1.705177,1.688302
2020-11-15 22:42:44.136,1.564923,1.693552,1.696927,1.688427
2020-11-15 22:42:44.154,1.566298,1.694802,1.701302,1.687677
2020-11-15 22:42:44.171,1.565298,1.703927,1.702677,1.686051
2020-11-15 22:42:44.188,1.565423,1.700052,1.710427,1.686426
2020-11-15 22:42:44.205,1.565798,1.699427,1.710427,1.687301
2020-11-15 22:42:44.222,1.565173,1.692927,1.708552,1.688927
2020-11-15 22:42:44.239,1.564048,1.688802,1.705177,1.687927
2020-11-15 22:42:44.256,1.567173,1.692052,1.695927,1.688552
2020-11-15 22:42:44.273,1.565673,1.699677,1.702052,1.686926
2020-11-15 22:42:44.290,1.565673,1.704177,1.702677,1.687426
2020-11-15 22:42:44.307,1.565798,1.699802,1.712552,1.688052
2020-11-15 22:42:44.324,1.564548,1.696677,1.709177,1.688802
2020-11-15 22:42:44.341,1.565923,1.688552,1.708802,1.689427
2020-11-15 22:42:44.358,1.564048,1.691677,1.704052,1.688927
2020-11-15 22:42:44.375,1.567423,1.693177,1.695052,1.688052
2020-11-15 22:42:44.392,1.566173,1.700802,1.701802,1.686676
2020-11-15 22:42:44.410,1.566048,1.702302,1.703927,1.687176
2020-11-15 22:42:44.427,1.565673,1.699927,1.713427,1.687176
2020-11-15 22:42:44.444,1.566798,1.695677,1.709552,1.689177
2020-11-15 22:42:44.461,1.563923,1.687051,1.707927,1.688302
2020-11-15 22:42:44.478,1.564798,1.692552,1.702302,1.688552
2020-11-15 22:42:44.495,1.569548,1.693427,1.697427,1.687927
2020-11-15 22:42:44.512,1.565673,1.702427,1.701552,1.686926
2020-11-15 22:42:44.529,1.562548,1.700302,1.704552,1.687301
2020-11-15 22:42:44.546,1.564423,1.699552,1.713677,1.686676
2020-11-15 22:42:44.564,1.566173,1.698052,1.709802,1.688427
2020-11-15 22:42:44.581,1.564423,1.688927,1.708677,1.689677
2020-11-15 22:42:44.598,1.563298,1.691802,1.701552,1.688677
2020-11-15 22:42:44.615,1.567173,1.693302,1.700302,1.688177
2020-11-15 22:42:44.632,1.566923,1.697802,1.702052,1.686801
2020-11-15 22:42:44.649,1.566298,1.704302,1.705802,1.687051
2020-11-15 22:42:44.666,1.564423,1.699177,1.714927,1.686926
2020-11-15 22:42:44.683,1.565048,1.696552,1.709302,1.687927
2020-11-15 22:42:44.700,1.564423,1.688177,1.707927,1.688802
2020-11-15 22:42:44.717,1.565048,1.691552,1.699177,1.688052
2020-11-15 22:42:44.734,1.568048,1.692927,1.700927,1.687051
2020-11-15 22:42:44.751,1.566423,1.704552,1.702302,1.687301
2020-11-15 22:42:44.768,1.565298,1.700552,1.706052,1.687551
2020-11-15 22:42:44.785,1.565673,1.699052,1.715927,1.688052
2020-11-15 22:42:44.802,1.564923,1.692177,1.708302,1.689552
2020-11-15 22:42:44.819,1.564173,1.690427,1.707177,1.688552
2020-11-15 22:42:44.836,1.565298,1.692927,1.697052,1.688052
2020-11-15 22:42:44.853,1.567173,1.696052,1.700802,1.687677
2020-11-15 22:42:44.870,1.566548,1.704927,1.701927,1.687301
2020-11-15 22:42:44.888,1.565173,1.700177,1.713552,1.687927
2020-11-15 22:42:44.905,1.564548,1.698802,1.709677,1.687551
2020-11-15 22:42:44.922,1.565298,1.690052,1.708302,1.689427
2020-11-15 22:42:44.939,1.565548,1.691302,1.703677,1.688052
2020-11-15 22:42:44.956,1.565548,1.692802,1.696802,1.688302
2020-11-15 22:42:44.973,1.565548,1.696302,1.702427,1.686926
2020-11-15 22:42:44.990,1.565923,1.706052,1.704927,1.687176
2020-11-15 22:42:45.007,1.565548,1.699552,1.713927,1.687051
2020-11-15 22:42:45.024,1.565173,1.698302,1.709302,1.687802
2020-11-15 22:42:45.041,1.565548,1.687927,1.708427,1.689177
2020-11-15 22:42:45.058,1.565673,1.691177,1.701802,1.688927
2020-11-15 22:42:45.075,1.567673,1.694177,1.698927,1.687551
2020-11-15 22:42:45.092,1.567048,1.703302,1.701802,1.686801
2020-11-15 22:42:45.109,1.565173,1.700427,1.705427,1.687802
2020-11-15 22:42:45.126,1.565048,1.699552,1.714427,1.687677
2020-11-15 22:42:45.143,1.565048,1.695427,1.709052,1.689552
2020-11-15 22:42:45.160,1.564048,1.687426,1.708177,1.688802
2020-11-15 22:42:45.177,1.565673,1.692802,1.699052,1.688552
2020-11-15 22:42:45.194,1.566798,1.694927,1.700802,1.688052
2020-11-15 22:42:45.211,1.565048,1.703677,1.702177,1.687176
2020-11-15 22:42:45.228,1.566048,1.700552,1.710802,1.687677
2020-11-15 22:42:45.245,1.567173,1.699177,1.709802,1.687802
2020-11-15 22:42:45.262,1.563298,1.693427,1.709177,1.689677
2020-11-15 22:42:45.279,1.564548,1.688302,1.705052,1.688177
2020-11-15 22:42:45.296,1.567298,1.692302,1.695302,1.688302
2020-11-15 22:42:45.313,1.567548,1.695427,1.701802,1.687677
2020-11-15 22:42:45.330,1.565173,1.704552,1.703177,1.687051
2020-11-15 22:42:45.347,1.564548,1.699802,1.713052,1.686676
2020-11-15 22:42:45.364,1.564548,1.698677,1.709802,1.687426
2020-11-15 22:42:45.381,1.564548,1.695302,1.709677,1.688677
2020-11-15 22:42:45.400,1.564173,1.686301,1.706052,1.688427
2020-11-15 22:42:45.417,1.565298,1.691802,1.697677,1.687677
2020-11-15 22:42:45.434,1.567798,1.693552,1.701552,1.687927
2020-11-15 22:42:45.451,1.565173,1.705927,1.702677,1.687802
2020-11-15 22:42:45.468,1.565798,1.699927,1.708677,1.687176
2020-11-15 22:42:45.485,1.565798,1.698677,1.712552,1.688177
2020-11-15 22:42:45.502,1.564798,1.690302,1.708802,1.690177
2020-11-15 22:42:45.519,1.565298,1.692677,1.705802,1.688177
2020-11-15 22:42:45.536,1.568548,1.693052,1.695927,1.688552
2020-11-15 22:42:45.553,1.566298,1.696552,1.700802,1.687551
2020-11-15 22:42:45.570,1.565048,1.706177,1.701552,1.687677
2020-11-15 22:42:45.587,1.565548,1.699802,1.714677,1.687301
2020-11-15 22:42:45.604,1.564798,1.698177,1.709302,1.688052
2020-11-15 22:42:45.621,1.564548,1.688552,1.708302,1.689802
2020-11-15 22:42:45.638,1.564548,1.692177,1.701302,1.689052
2020-11-15 22:42:45.655,1.568548,1.693052,1.700177,1.688177
2020-11-15 22:42:45.672,1.569048,1.698427,1.702427,1.687051
2020-11-15 22:42:45.689,1.566173,1.703927,1.705927,1.686926
2020-11-15 22:42:45.706,1.564548,1.699802,1.715552,1.687677
2020-11-15 22:42:45.723,1.567298,1.697302,1.709302,1.688302
2020-11-15 22:42:45.740,1.566673,1.687677,1.708177,1.688802
2020-11-15 22:42:45.757,1.565673,1.691427,1.699052,1.688177
2020-11-15 22:42:45.774,1.568298,1.693427,1.701302,1.687927
2020-11-15 22:42:45.791,1.565673,1.700302,1.702052,1.687176
2020-11-15 22:42:45.808,1.565048,1.700927,1.706677,1.687176
2020-11-15 22:42:45.825,1.564798,1.698802,1.715677,1.687927
2020-11-15 22:42:45.843,1.565173,1.692427,1.708802,1.689927
2020-11-15 22:42:45.860,1.564798,1.689927,1.707052,1.688552
2020-11-15 22:42:45.877,1.566673,1.693052,1.696927,1.688802
2020-11-15 22:42:45.894,1.568923,1.696302,1.700177,1.688052
2020-11-15 22:42:45.911,1.566048,1.705802,1.701302,1.687301
2020-11-15 22:42:45.928,1.566048,1.699927,1.706552,1.687802
2020-11-15 22:42:45.945,1.564173,1.699177,1.713302,1.688802
2020-11-15 22:42:45.962,1.564423,1.691177,1.708177,1.689427
2020-11-15 22:42:45.979,1.565173,1.691552,1.703177,1.688677
2020-11-15 22:42:45.996,1.567923,1.692802,1.696802,1.688427
2020-11-15 22:42:46.013,1.565923,1.696552,1.701427,1.687301
2020-11-15 22:42:46.030,1.565548,1.706177,1.704927,1.687677
2020-11-15 22:42:46.047,1.566673,1.699927,1.713677,1.687677
2020-11-15 22:42:46.064,1.566298,1.697677,1.709427,1.687551
2020-11-15 22:42:46.081,1.565798,1.688927,1.708427,1.689177
2020-11-15 22:42:46.098,1.565423,1.691302,1.702052,1.688427
2020-11-15 22:42:46.115,1.569048,1.692427,1.698427,1.687677
2020-11-15 22:42:46.132,1.565923,1.697177,1.702427,1.686676
2020-11-15 22:42:46.149,1.566048,1.699927,1.705552,1.687677
2020-11-15 22:42:46.166,1.566173,1.700052,1.714927,1.688177
2020-11-15 22:42:46.183,1.564923,1.695052,1.709052,1.689302
2020-11-15 22:42:46.200,1.565923,1.686926,1.707927,1.688802
2020-11-15 22:42:46.218,1.563923,1.691927,1.704052,1.688802
2020-11-15 22:42:46.236,1.566673,1.693677,1.695552,1.688052
2020-11-15 22:42:46.253,1.566298,1.700177,1.701302,1.686301
2020-11-15 22:42:46.270,1.566173,1.703802,1.703677,1.687301
2020-11-15 22:42:46.287,1.565548,1.699552,1.711677,1.687301
2020-11-15 22:42:46.304,1.564673,1.696552,1.708802,1.688677
2020-11-15 22:42:46.321,1.564173,1.687551,1.707802,1.689302
2020-11-15 22:42:46.338,1.564798,1.692552,1.698427,1.688427
2020-11-15 22:42:46.355,1.568048,1.693802,1.701427,1.687802
2020-11-15 22:42:46.372,1.565548,1.701177,1.702177,1.686676
2020-11-15 22:42:46.389,1.566673,1.700927,1.706927,1.687176
2020-11-15 22:42:46.406,1.565048,1.699177,1.714302,1.687051
2020-11-15 22:42:46.423,1.565173,1.695427,1.708802,1.689052
2020-11-15 22:42:46.440,1.564923,1.686176,1.706802,1.688052
2020-11-15 22:42:46.457,1.565798,1.692802,1.698302,1.687927
2020-11-15 22:42:46.474,1.568048,1.693427,1.701302,1.687301
2020-11-15 22:42:46.491,1.566173,1.705802,1.702427,1.687426
2020-11-15 22:42:46.508,1.566548,1.699802,1.708177,1.687426
2020-11-15 22:42:46.525,1.566548,1.698302,1.712677,1.687802
2020-11-15 22:42:46.542,1.564673,1.689802,1.708677,1.690177
2020-11-15 22:42:46.559,1.562673,1.692177,1.706052,1.688927
2020-11-15 22:42:46.576,1.567048,1.692927,1.696177,1.688427
2020-11-15 22:42:46.593,1.568423,1.697427,1.700427,1.687051
2020-11-15 22:42:46.610,1.566048,1.705802,1.701802,1.687301
2020-11-15 22:42:46.627,1.566423,1.699552,1.714552,1.687051
2020-11-15 22:42:46.644,1.565548,1.697552,1.709677,1.688427
2020-11-15 22:42:46.661,1.565298,1.688927,1.708802,1.689427
2020-11-15 22:42:46.678,1.564923,1.691427,1.700177,1.688927
2020-11-15 22:42:46.695,1.566298,1.693177,1.695177,1.688427
2020-11-15 22:42:46.713,1.567173,1.698802,1.700677,1.686551
2020-11-15 22:42:46.730,1.566673,1.703802,1.705552,1.687051
2020-11-15 22:42:46.747,1.566548,1.699802,1.714927,1.687176
2020-11-15 22:42:46.764,1.563548,1.697052,1.709427,1.688927
2020-11-15 22:42:46.781,1.565423,1.688302,1.707677,1.688802
2020-11-15 22:42:46.798,1.566923,1.691927,1.698552,1.687802
2020-11-15 22:42:46.815,1.569673,1.693177,1.701052,1.687927
2020-11-15 22:42:46.832,1.566548,1.699927,1.702302,1.686926
2020-11-15 22:42:46.849,1.566423,1.702177,1.706302,1.687301
2020-11-15 22:42:46.866,1.565923,1.699302,1.715552,1.686801
2020-11-15 22:42:46.883,1.565423,1.695552,1.708677,1.688302
2020-11-15 22:42:46.900,1.564423,1.686301,1.707177,1.688927
2020-11-15 22:42:46.917,1.566298,1.693177,1.698052,1.687927
2020-11-15 22:42:46.934,1.567923,1.693177,1.701177,1.687301
2020-11-15 22:42:46.951,1.567173,1.701552,1.702552,1.686176
2020-11-15 22:42:46.968,1.566298,1.700552,1.707302,1.687426
2020-11-15 22:42:46.985,1.566673,1.699052,1.713302,1.688552
2020-11-15 22:42:47.002,1.565798,1.691177,1.708427,1.689677
2020-11-15 22:42:47.019,1.564673,1.691802,1.706302,1.688802
2020-11-15 22:42:47.036,1.566423,1.692427,1.701177,1.688927
2020-11-15 22:42:47.055,1.567423,1.694052,1.699552,1.688427
2020-11-15 22:42:47.072,1.567673,1.703302,1.702177,1.686801
2020-11-15 22:42:47.089,1.566423,1.700677,1.704802,1.688052
2020-11-15 22:42:47.106,1.566673,1.698927,1.714927,1.687802
2020-11-15 22:42:47.123,1.564923,1.694302,1.709177,1.689677
2020-11-15 22:42:47.140,1.565423,1.687551,1.707677,1.688802
2020-11-15 22:42:47.157,1.565923,1.692802,1.698552,1.688552
2020-11-15 22:42:47.174,1.568173,1.694177,1.701302,1.687802
2020-11-15 22:42:47.191,1.567548,1.704302,1.702802,1.686801
2020-11-15 22:42:47.208,1.566923,1.699802,1.711677,1.686801
2020-11-15 22:42:47.225,1.564673,1.698927,1.709302,1.687176
2020-11-15 22:42:47.242,1.565048,1.692802,1.708677,1.689677
2020-11-15 22:42:47.259,1.565548,1.688677,1.704552,1.687927
2020-11-15 22:42:47.276,1.567798,1.691802,1.695552,1.687927
2020-11-15 22:42:47.293,1.567423,1.695427,1.702052,1.687301
2020-11-15 22:42:47.310,1.566048,1.704677,1.703552,1.687677
2020-11-15 22:42:47.327,1.566423,1.699802,1.713052,1.687927
2020-11-15 22:42:47.344,1.565923,1.696677,1.709427,1.689177
2020-11-15 22:42:47.361,1.565048,1.688302,1.709052,1.689302
2020-11-15 22:42:47.378,1.565298,1.692177,1.703427,1.687927
2020-11-15 22:42:47.395,1.570173,1.693177,1.696677,1.687927
2020-11-15 22:42:47.412,1.566673,1.701177,1.701802,1.686926
2020-11-15 22:42:47.429,1.567298,1.701427,1.703302,1.687176
2020-11-15 22:42:47.446,1.566173,1.699552,1.713052,1.687301
2020-11-15 22:42:47.463,1.565423,1.696302,1.709177,1.688927
2020-11-15 22:42:47.480,1.563673,1.686426,1.707677,1.688677
2020-11-15 22:42:47.497,1.566673,1.692677,1.697677,1.687551
2020-11-15 22:42:47.514,1.567548,1.693802,1.701177,1.687927
2020-11-15 22:42:47.531,1.566923,1.703177,1.702927,1.686676
2020-11-15 22:42:47.548,1.566548,1.700802,1.708552,1.687802
2020-11-15 22:42:47.566,1.564048,1.699302,1.712677,1.687176
2020-11-15 22:42:47.583,1.565048,1.694927,1.709052,1.688677
2020-11-15 22:42:47.600,1.564798,1.686551,1.705552,1.688302
2020-11-15 22:42:47.617,1.566173,1.692177,1.697302,1.687426
2020-11-15 22:42:47.634,1.567673,1.694427,1.702177,1.687301
2020-11-15 22:42:47.651,1.567548,1.702802,1.702177,1.687677
2020-11-15 22:42:47.668,1.567798,1.699427,1.709802,1.688177
2020-11-15 22:42:47.685,1.566673,1.698177,1.709927,1.688177
2020-11-15 22:42:47.702,1.564923,1.688802,1.708052,1.689427
2020-11-15 22:42:47.719,1.564548,1.692302,1.704927,1.688427
2020-11-15 22:42:47.736,1.566798,1.692802,1.695177,1.688302
2020-11-15 22:42:47.753,1.567673,1.698427,1.700802,1.687301
2020-11-15 22:42:47.770,1.566673,1.704177,1.702552,1.686926
2020-11-15 22:42:47.787,1.565798,1.699802,1.711052,1.686926
2020-11-15 22:42:47.804,1.565423,1.696427,1.709177,1.688177
2020-11-15 22:42:47.821,1.565798,1.688802,1.708052,1.688927
2020-11-15 22:42:47.838,1.566298,1.692552,1.698802,1.688427
2020-11-15 22:42:47.855,1.567548,1.693427,1.701302,1.687927
2020-11-15 22:42:47.873,1.569173,1.696302,1.701677,1.686426
2020-11-15 22:42:47.890,1.565798,1.705302,1.704052,1.686926
2020-11-15 22:42:47.907,1.565048,1.699927,1.713177,1.687301
2020-11-15 22:42:47.924,1.566048,1.698302,1.709427,1.688302
2020-11-15 22:42:47.941,1.565673,1.690052,1.709552,1.689677
2020-11-15 22:42:47.958,1.566298,1.692052,1.702927,1.688177
2020-11-15 22:42:47.975,1.567673,1.692552,1.696927,1.688302
2020-11-15 22:42:47.992,1.568923,1.696552,1.701927,1.686676
2020-11-15 22:42:48.009,1.566423,1.700552,1.704802,1.688052
2020-11-15 22:42:48.026,1.565798,1.700302,1.713427,1.687551
2020-11-15 22:42:48.043,1.567298,1.696177,1.709302,1.689552
2020-11-15 22:42:48.061,1.565923,1.687051,1.707802,1.689177
2020-11-15 22:42:48.078,1.565923,1.693052,1.701177,1.688052
2020-11-15 22:42:48.095,1.568298,1.694302,1.699427,1.687677
2020-11-15 22:42:48.112,1.565548,1.703177,1.701802,1.687176
2020-11-15 22:42:48.129,1.566673,1.700552,1.704677,1.686801
2020-11-15 22:42:48.146,1.565173,1.699302,1.714802,1.687426
2020-11-15 22:42:48.163,1.565048,1.695052,1.709177,1.689177
2020-11-15 22:42:48.180,1.566298,1.687927,1.705427,1.688177
2020-11-15 22:42:48.197,1.567423,1.692677,1.695677,1.688052
2020-11-15 22:42:48.214,1.567548,1.694427,1.701427,1.686926
2020-11-15 22:42:48.231,1.567173,1.704552,1.702802,1.687301
2020-11-15 22:42:48.248,1.566173,1.700677,1.711552,1.687301
2020-11-15 22:42:48.265,1.566423,1.699177,1.709927,1.687301
2020-11-15 22:42:48.282,1.564173,1.693177,1.708552,1.689302
2020-11-15 22:42:48.299,1.566048,1.689427,1.705052,1.688677
2020-11-15 22:42:48.316,1.568798,1.692677,1.695677,1.688802
2020-11-15 22:42:48.333,1.567173,1.695677,1.701802,1.687176
2020-11-15 22:42:48.350,1.566423,1.704427,1.703552,1.687051
2020-11-15 22:42:48.368,1.566673,1.699927,1.712552,1.687551
2020-11-15 22:42:48.385,1.565048,1.699177,1.709052,1.687677
2020-11-15 22:42:48.402,1.565298,1.691427,1.709052,1.689677
2020-11-15 22:42:48.419,1.566798,1.690802,1.703552,1.687927
2020-11-15 22:42:48.436,1.568923,1.691927,1.696552,1.688302
2020-11-15 22:42:48.453,1.567048,1.700927,1.702302,1.686926
2020-11-15 22:42:48.470,1.566923,1.701427,1.704052,1.687051
2020-11-15 22:42:48.487,1.565548,1.699052,1.713052,1.688052
2020-11-15 22:42:48.504,1.566298,1.696052,1.709927,1.688927
2020-11-15 22:42:48.521,1.565298,1.686676,1.707802,1.688177
2020-11-15 22:42:48.538,1.565423,1.692802,1.701552,1.688802
2020-11-15 22:42:48.555,1.569173,1.694927,1.698302,1.687802
2020-11-15 22:42:48.572,1.567423,1.702802,1.701677,1.686926
2020-11-15 22:42:48.589,1.565798,1.700427,1.704552,1.687551
2020-11-15 22:42:48.606,1.565298,1.699427,1.713427,1.688052
2020-11-15 22:42:48.623,1.564798,1.695427,1.708802,1.689677
2020-11-15 22:42:48.640,1.565548,1.686926,1.705927,1.688927
2020-11-15 22:42:48.657,1.566173,1.692427,1.696552,1.689177
2020-11-15 22:42:48.674,1.567423,1.693927,1.701552,1.687176
2020-11-15 22:42:48.691,1.565673,1.697927,1.702802,1.686926
2020-11-15 22:42:48.709,1.566673,1.703302,1.706427,1.687176
2020-11-15 22:42:48.726,1.565548,1.698927,1.715802,1.687551
2020-11-15 22:42:48.743,1.565798,1.696802,1.709427,1.688427
2020-11-15 22:42:48.760,1.564923,1.688052,1.707427,1.688927
2020-11-15 22:42:48.777,1.565673,1.691552,1.699302,1.688427
2020-11-15 22:42:48.794,1.567173,1.692677,1.701052,1.687677
