Datetime,chan0,chan1,chan2,chan3
2020-11-15 22:52:15.283,1.581048,1.706802,1.723303,1.694177
2020-11-15 22:52:15.300,1.579673,1.703427,1.715802,1.696302
2020-11-15 22:52:15.317,1.579673,1.696677,1.714177,1.695677
2020-11-15 22:52:15.334,1.582173,1.700677,1.705177,1.695177
2020-11-15 22:52:15.351,1.583048,1.702927,1.708052,1.694427
2020-11-15 22:52:15.368,1.581798,1.712677,1.708677,1.694052
2020-11-15 22:52:15.385,1.581423,1.707052,1.714552,1.694052
2020-11-15 22:52:15.402,1.580798,1.706302,1.721053,1.694802
2020-11-15 22:52:15.419,1.581048,1.698802,1.714802,1.696302
2020-11-15 22:52:15.436,1.581798,1.698552,1.711552,1.694927
2020-11-15 22:52:15.453,1.583923,1.700052,1.703802,1.694802
2020-11-15 22:52:15.470,1.581423,1.703927,1.708927,1.693927
2020-11-15 22:52:15.487,1.582173,1.712177,1.711427,1.693927
2020-11-15 22:52:15.504,1.581048,1.706802,1.720678,1.694052
2020-11-15 22:52:15.521,1.580173,1.701552,1.716177,1.696552
2020-11-15 22:52:15.538,1.580298,1.694927,1.715552,1.695552
2020-11-15 22:52:15.555,1.580298,1.699427,1.709302,1.695427
2020-11-15 22:52:15.572,1.583423,1.700927,1.704802,1.694927
2020-11-15 22:52:15.589,1.581423,1.709677,1.708427,1.693677
2020-11-15 22:52:15.606,1.581423,1.707677,1.711677,1.694052
2020-11-15 22:52:15.623,1.580173,1.706927,1.720678,1.694677
2020-11-15 22:52:15.640,1.580423,1.702552,1.716177,1.695802
2020-11-15 22:52:15.657,1.581548,1.693802,1.713177,1.694927
2020-11-15 22:52:15.674,1.583173,1.700052,1.704052,1.695177
2020-11-15 22:52:15.691,1.582673,1.700927,1.708677,1.693802
2020-11-15 22:52:15.708,1.581048,1.710302,1.710052,1.694052
2020-11-15 22:52:15.725,1.582173,1.707677,1.717177,1.694427
2020-11-15 22:52:15.742,1.580173,1.705552,1.718802,1.694177
2020-11-15 22:52:15.759,1.579923,1.696302,1.715302,1.696427
2020-11-15 22:52:15.776,1.581423,1.699427,1.712302,1.694802
2020-11-15 22:52:15.793,1.580923,1.700052,1.702927,1.695302
2020-11-15 22:52:15.810,1.582423,1.704802,1.708052,1.693927
2020-11-15 22:52:15.827,1.581173,1.712802,1.711927,1.694177
2020-11-15 22:52:15.844,1.581298,1.706927,1.721928,1.694677
2020-11-15 22:52:15.861,1.580048,1.705177,1.716177,1.695177
2020-11-15 22:52:15.878,1.581048,1.695802,1.716177,1.695677
2020-11-15 22:52:15.895,1.581423,1.698802,1.707427,1.694052
2020-11-15 22:52:15.913,1.582173,1.699677,1.702427,1.694802
2020-11-15 22:52:15.930,1.582298,1.702177,1.708802,1.693552
2020-11-15 22:52:15.947,1.582048,1.711177,1.709677,1.693802
2020-11-15 22:52:15.964,1.580423,1.707052,1.719677,1.694677
2020-11-15 22:52:15.981,1.580048,1.704802,1.717177,1.695552
2020-11-15 22:52:15.998,1.580048,1.695302,1.715927,1.695927
2020-11-15 22:52:16.015,1.578923,1.699552,1.710427,1.695177
2020-11-15 22:52:16.032,1.581423,1.700677,1.708052,1.694177
2020-11-15 22:52:16.049,1.582048,1.707677,1.709552,1.693677
2020-11-15 22:52:16.066,1.581423,1.709427,1.713677,1.693427
2020-11-15 22:52:16.083,1.580548,1.707052,1.723303,1.694177
2020-11-15 22:52:16.100,1.580548,1.704302,1.716177,1.695052
2020-11-15 22:52:16.117,1.580673,1.694177,1.715052,1.695552
2020-11-15 22:52:16.134,1.580173,1.699177,1.705552,1.695052
2020-11-15 22:52:16.151,1.583548,1.703802,1.708052,1.693802
2020-11-15 22:52:16.168,1.580673,1.712677,1.709302,1.693927
2020-11-15 22:52:16.185,1.580798,1.707177,1.714802,1.694552
2020-11-15 22:52:16.202,1.580673,1.706427,1.721428,1.694802
2020-11-15 22:52:16.219,1.580548,1.698802,1.715552,1.695927
2020-11-15 22:52:16.236,1.580423,1.698552,1.713302,1.695677
2020-11-15 22:52:16.253,1.580673,1.700552,1.703677,1.695552
2020-11-15 22:52:16.270,1.583173,1.704427,1.709802,1.693677
2020-11-15 22:52:16.287,1.580423,1.713427,1.711052,1.693927
2020-11-15 22:52:16.304,1.579173,1.707177,1.720928,1.693427
2020-11-15 22:52:16.321,1.580173,1.705677,1.716802,1.694302
2020-11-15 22:52:16.338,1.580298,1.696802,1.716302,1.695927
2020-11-15 22:52:16.355,1.580798,1.699927,1.709927,1.695802
2020-11-15 22:52:16.372,1.582923,1.700927,1.704677,1.694427
2020-11-15 22:52:16.389,1.581923,1.710052,1.708802,1.693802
2020-11-15 22:52:16.406,1.580923,1.708427,1.711802,1.694802
2020-11-15 22:52:16.423,1.580923,1.706802,1.720928,1.694427
2020-11-15 22:52:16.440,1.580923,1.702677,1.715802,1.695677
2020-11-15 22:52:16.456,1.580798,1.694052,1.713177,1.695677
2020-11-15 22:52:16.473,1.581048,1.700052,1.704302,1.694802
2020-11-15 22:52:16.490,1.582798,1.701427,1.708052,1.694177
2020-11-15 22:52:16.507,1.581548,1.710552,1.710052,1.693552
2020-11-15 22:52:16.524,1.580173,1.707177,1.716802,1.693927
2020-11-15 22:52:16.541,1.580423,1.706427,1.717677,1.693677
2020-11-15 22:52:16.558,1.581423,1.701552,1.716427,1.696052
2020-11-15 22:52:16.575,1.580923,1.698927,1.712552,1.695552
2020-11-15 22:52:16.592,1.582423,1.700302,1.703052,1.694802
2020-11-15 22:52:16.609,1.581423,1.705052,1.708052,1.694177
2020-11-15 22:52:16.626,1.581798,1.713052,1.710052,1.694552
2020-11-15 22:52:16.644,1.580298,1.707302,1.718802,1.694302
2020-11-15 22:52:16.661,1.581673,1.705052,1.717427,1.694927
2020-11-15 22:52:16.678,1.580048,1.695927,1.715677,1.696302
2020-11-15 22:52:16.695,1.579798,1.699177,1.711802,1.695052
2020-11-15 22:52:16.712,1.583798,1.700177,1.702427,1.694427
2020-11-15 22:52:16.729,1.580048,1.702052,1.708177,1.693427
2020-11-15 22:52:16.747,1.581048,1.712302,1.708927,1.693677
2020-11-15 22:52:16.764,1.580548,1.708427,1.720052,1.694677
2020-11-15 22:52:16.781,1.581048,1.705927,1.716802,1.694552
2020-11-15 22:52:16.798,1.579423,1.698927,1.715302,1.696052
2020-11-15 22:52:16.815,1.581548,1.697552,1.711802,1.694927
2020-11-15 22:52:16.832,1.583048,1.699552,1.702802,1.694427
2020-11-15 22:52:16.849,1.582423,1.703177,1.709302,1.693052
2020-11-15 22:52:16.866,1.580923,1.709927,1.711052,1.694302
2020-11-15 22:52:16.883,1.580923,1.707177,1.720052,1.694302
2020-11-15 22:52:16.900,1.580423,1.703677,1.716802,1.695802
2020-11-15 22:52:16.917,1.580173,1.694552,1.714802,1.695052
2020-11-15 22:52:16.934,1.580298,1.699552,1.709302,1.695302
2020-11-15 22:52:16.951,1.584173,1.700802,1.702927,1.695052
2020-11-15 22:52:16.968,1.582298,1.709052,1.710177,1.692802
2020-11-15 22:52:16.985,1.581798,1.707427,1.714802,1.694052
2020-11-15 22:52:17.002,1.581173,1.706802,1.721303,1.694302
2020-11-15 22:52:17.019,1.580673,1.702927,1.715552,1.695302
2020-11-15 22:52:17.036,1.580173,1.693427,1.713052,1.695427
2020-11-15 22:52:17.053,1.582173,1.699302,1.704552,1.695177
2020-11-15 22:52:17.070,1.583798,1.700552,1.708552,1.694052
2020-11-15 22:52:17.087,1.581798,1.709177,1.709927,1.694177
2020-11-15 22:52:17.104,1.580923,1.706802,1.716177,1.694552
2020-11-15 22:52:17.121,1.580798,1.706302,1.719927,1.694177
2020-11-15 22:52:17.138,1.579673,1.696427,1.715302,1.696927
2020-11-15 22:52:17.155,1.579923,1.699427,1.712927,1.695427
2020-11-15 22:52:17.172,1.582923,1.700052,1.703052,1.694927
2020-11-15 22:52:17.189,1.582798,1.704802,1.708177,1.693552
2020-11-15 22:52:17.206,1.582173,1.713802,1.712927,1.693427
2020-11-15 22:52:17.223,1.580923,1.706927,1.722053,1.694052
2020-11-15 22:52:17.240,1.581298,1.704927,1.716427,1.694677
2020-11-15 22:52:17.257,1.580923,1.695927,1.715677,1.696302
2020-11-15 22:52:17.274,1.581548,1.698552,1.708427,1.695177
2020-11-15 22:52:17.291,1.585298,1.699677,1.707552,1.695177
2020-11-15 22:52:17.308,1.581923,1.710927,1.708927,1.693177
2020-11-15 22:52:17.325,1.582923,1.707427,1.712677,1.694427
2020-11-15 22:52:17.342,1.581298,1.707052,1.722678,1.694552
2020-11-15 22:52:17.359,1.580173,1.701927,1.715927,1.696052
2020-11-15 22:52:17.376,1.579673,1.694927,1.714802,1.695052
2020-11-15 22:52:17.393,1.581423,1.700177,1.705552,1.695552
2020-11-15 22:52:17.410,1.584923,1.702177,1.707302,1.693677
2020-11-15 22:52:17.427,1.581798,1.711802,1.710302,1.693552
2020-11-15 22:52:17.444,1.580923,1.707302,1.718427,1.693677
2020-11-15 22:52:17.461,1.581673,1.706427,1.717427,1.694427
2020-11-15 22:52:17.478,1.582298,1.700177,1.715927,1.695177
2020-11-15 22:52:17.495,1.580798,1.696177,1.711302,1.694802
2020-11-15 22:52:17.512,1.583298,1.698927,1.702802,1.694302
2020-11-15 22:52:17.529,1.582423,1.702677,1.709302,1.693927
2020-11-15 22:52:17.546,1.582423,1.711427,1.710802,1.693177
2020-11-15 22:52:17.564,1.580923,1.707552,1.713802,1.693677
2020-11-15 22:52:17.581,1.581923,1.707177,1.721928,1.694302
2020-11-15 22:52:17.598,1.580048,1.699427,1.715177,1.696052
2020-11-15 22:52:17.615,1.580298,1.698427,1.713552,1.695927
2020-11-15 22:52:17.632,1.580798,1.700677,1.703677,1.695177
2020-11-15 22:52:17.649,1.584173,1.703427,1.709177,1.694302
2020-11-15 22:52:17.666,1.582798,1.712552,1.711302,1.694302
2020-11-15 22:52:17.683,1.581298,1.707302,1.721053,1.694052
2020-11-15 22:52:17.700,1.580923,1.706052,1.717052,1.694677
2020-11-15 22:52:17.717,1.581048,1.696927,1.716052,1.695927
2020-11-15 22:52:17.734,1.580048,1.699052,1.710427,1.694552
2020-11-15 22:52:17.751,1.584173,1.699177,1.704802,1.694427
2020-11-15 22:52:17.768,1.582298,1.709677,1.709177,1.693802
2020-11-15 22:52:17.785,1.582173,1.707927,1.711427,1.693677
2020-11-15 22:52:17.802,1.580298,1.706802,1.721428,1.694552
2020-11-15 22:52:17.819,1.580048,1.702927,1.716427,1.695302
2020-11-15 22:52:17.836,1.580298,1.693802,1.715302,1.695177
2020-11-15 22:52:17.853,1.580798,1.699552,1.707427,1.695052
2020-11-15 22:52:17.870,1.583798,1.701427,1.708302,1.694302
2020-11-15 22:52:17.887,1.581798,1.710302,1.709427,1.693552
2020-11-15 22:52:17.904,1.581423,1.708052,1.716427,1.693552
2020-11-15 22:52:17.921,1.581673,1.706177,1.719052,1.694052
2020-11-15 22:52:17.938,1.580298,1.701552,1.715427,1.695552
2020-11-15 22:52:17.955,1.581423,1.693302,1.712427,1.695177
2020-11-15 22:52:17.972,1.583048,1.700552,1.703177,1.694927
2020-11-15 22:52:17.989,1.583923,1.704677,1.708677,1.693927
2020-11-15 22:52:18.006,1.582298,1.713302,1.709552,1.694802
2020-11-15 22:52:18.023,1.580798,1.707427,1.717677,1.694302
2020-11-15 22:52:18.040,1.580798,1.705427,1.717302,1.695302
2020-11-15 22:52:18.057,1.579798,1.695927,1.715802,1.695927
2020-11-15 22:52:18.074,1.581673,1.699427,1.711802,1.694927
2020-11-15 22:52:18.091,1.581923,1.700927,1.707802,1.694302
2020-11-15 22:52:18.108,1.582423,1.705677,1.709552,1.693302
2020-11-15 22:52:18.125,1.581923,1.711177,1.713052,1.693177
2020-11-15 22:52:18.142,1.583173,1.706427,1.722678,1.693552
2020-11-15 22:52:18.159,1.579923,1.703177,1.716177,1.694552
2020-11-15 22:52:18.176,1.582173,1.695177,1.715052,1.695927
2020-11-15 22:52:18.193,1.580673,1.699177,1.705927,1.695302
2020-11-15 22:52:18.210,1.584548,1.700052,1.708677,1.694552
2020-11-15 22:52:18.227,1.582423,1.707052,1.709677,1.692802
2020-11-15 22:52:18.244,1.582298,1.707802,1.713177,1.694427
2020-11-15 22:52:18.261,1.581423,1.706677,1.723428,1.694302
2020-11-15 22:52:18.278,1.580673,1.700052,1.715802,1.696177
2020-11-15 22:52:18.295,1.579673,1.696677,1.713802,1.695802
2020-11-15 22:52:18.312,1.581423,1.700177,1.704802,1.695677
2020-11-15 22:52:18.329,1.583548,1.703177,1.708177,1.694177
2020-11-15 22:52:18.346,1.581923,1.712427,1.711052,1.694177
2020-11-15 22:52:18.363,1.580298,1.707427,1.720678,1.693802
2020-11-15 22:52:18.380,1.580173,1.706177,1.721553,1.693802
2020-11-15 22:52:18.398,1.579173,1.703302,1.716052,1.695927
2020-11-15 22:52:18.415,1.581048,1.694177,1.713677,1.695052
2020-11-15 22:52:18.432,1.582048,1.699552,1.704427,1.694927
2020-11-15 22:52:18.449,1.583048,1.700427,1.708177,1.694427
2020-11-15 22:52:18.466,1.582673,1.713427,1.709677,1.694302
2020-11-15 22:52:18.483,1.582673,1.707052,1.716302,1.694302
2020-11-15 22:52:18.500,1.580423,1.705552,1.719302,1.695427
2020-11-15 22:52:18.517,1.580673,1.696677,1.715427,1.696427
2020-11-15 22:52:18.534,1.579673,1.698427,1.712177,1.694677
2020-11-15 22:52:18.551,1.582673,1.699927,1.705302,1.694927
2020-11-15 22:52:18.568,1.581673,1.704302,1.708802,1.693802
2020-11-15 22:52:18.585,1.581173,1.713302,1.712052,1.693177
2020-11-15 22:52:18.602,1.581173,1.706677,1.722303,1.694177
2020-11-15 22:52:18.619,1.579548,1.704302,1.716552,1.694177
2020-11-15 22:52:18.636,1.580673,1.693677,1.715552,1.695052
2020-11-15 22:52:18.653,1.580423,1.700052,1.707302,1.694927
2020-11-15 22:52:18.670,1.583673,1.701302,1.706802,1.694177
2020-11-15 22:52:18.687,1.582298,1.711177,1.709677,1.692802
2020-11-15 22:52:18.704,1.583048,1.707552,1.712802,1.694302
2020-11-15 22:52:18.721,1.579798,1.707052,1.721553,1.695177
2020-11-15 22:52:18.738,1.579923,1.701177,1.715802,1.695427
2020-11-15 22:52:18.755,1.580548,1.695427,1.711677,1.695427
2020-11-15 22:52:18.772,1.582923,1.699802,1.703052,1.695177
2020-11-15 22:52:18.789,1.583173,1.702302,1.708552,1.693927
2020-11-15 22:52:18.806,1.582048,1.711052,1.709552,1.692927
2020-11-15 22:52:18.823,1.581298,1.706802,1.718802,1.694052
2020-11-15 22:52:18.840,1.580798,1.704302,1.716427,1.694927
2020-11-15 22:52:18.857,1.580798,1.695302,1.715302,1.696052
2020-11-15 22:52:18.874,1.580423,1.699302,1.711302,1.695177
2020-11-15 22:52:18.891,1.583798,1.700427,1.701677,1.694427
2020-11-15 22:52:18.908,1.580923,1.707177,1.709802,1.692927
2020-11-15 22:52:18.925,1.581173,1.710302,1.713927,1.693802
2020-11-15 22:52:18.942,1.580798,1.706927,1.720177,1.694302
2020-11-15 22:52:18.959,1.580798,1.704052,1.716677,1.695802
2020-11-15 22:52:18.976,1.581298,1.694802,1.715177,1.695427
2020-11-15 22:52:18.993,1.580548,1.699427,1.710302,1.695052
2020-11-15 22:52:19.010,1.583923,1.700552,1.708677,1.694552
2020-11-15 22:52:19.027,1.583423,1.708552,1.709177,1.693302
2020-11-15 22:52:19.044,1.581673,1.707927,1.714427,1.694302
2020-11-15 22:52:19.061,1.581298,1.706302,1.721803,1.693177
2020-11-15 22:52:19.078,1.580673,1.702302,1.716177,1.695052
2020-11-15 22:52:19.095,1.579798,1.693552,1.713927,1.695552
2020-11-15 22:52:19.112,1.582423,1.700552,1.704552,1.695177
2020-11-15 22:52:19.129,1.583923,1.703677,1.708427,1.693677
2020-11-15 22:52:19.146,1.582048,1.713677,1.709427,1.694177
2020-11-15 22:52:19.163,1.581048,1.707802,1.715677,1.694302
2020-11-15 22:52:19.180,1.580798,1.705802,1.720052,1.694927
2020-11-15 22:52:19.197,1.580298,1.696802,1.715302,1.695177
2020-11-15 22:52:19.215,1.581423,1.693677,1.715052,1.694927
2020-11-15 22:52:19.232,1.580298,1.699927,1.706802,1.695052
2020-11-15 22:52:19.249,1.582798,1.702052,1.708677,1.694427
2020-11-15 22:52:19.266,1.582423,1.711052,1.709927,1.693052
2020-11-15 22:52:19.283,1.581298,1.707802,1.717427,1.693302
2020-11-15 22:52:19.300,1.579798,1.706427,1.718052,1.693802
2020-11-15 22:52:19.317,1.581048,1.700427,1.716427,1.694927
2020-11-15 22:52:19.334,1.581048,1.698927,1.712677,1.695802
2020-11-15 22:52:19.351,1.582673,1.700177,1.703177,1.694927
2020-11-15 22:52:19.368,1.581048,1.705552,1.709052,1.693927
2020-11-15 22:52:19.385,1.581798,1.712302,1.709427,1.694177
2020-11-15 22:52:19.402,1.581798,1.706927,1.718677,1.693927
2020-11-15 22:52:19.419,1.580673,1.704552,1.716052,1.695052
2020-11-15 22:52:19.436,1.580923,1.695302,1.715427,1.696052
2020-11-15 22:52:19.453,1.582048,1.698927,1.705927,1.695052
2020-11-15 22:52:19.470,1.583798,1.700302,1.708802,1.694802
2020-11-15 22:52:19.487,1.582798,1.707052,1.709052,1.692677
2020-11-15 22:52:19.504,1.580673,1.710177,1.713302,1.693927
2020-11-15 22:52:19.521,1.581173,1.706552,1.722303,1.695052
2020-11-15 22:52:19.538,1.582048,1.700677,1.716302,1.696552
2020-11-15 22:52:19.555,1.580673,1.696177,1.714302,1.695427
2020-11-15 22:52:19.572,1.581673,1.700802,1.705427,1.695302
2020-11-15 22:52:19.589,1.583673,1.702802,1.708302,1.695052
2020-11-15 22:52:19.606,1.580798,1.711927,1.709177,1.693427
2020-11-15 22:52:19.623,1.580423,1.706927,1.713802,1.694427
2020-11-15 22:52:19.640,1.580298,1.706677,1.716427,1.694677
2020-11-15 22:52:19.657,1.580548,1.698802,1.715427,1.696177
2020-11-15 22:52:19.674,1.579923,1.699177,1.711177,1.694677
2020-11-15 22:52:19.691,1.583548,1.700302,1.703927,1.694552
2020-11-15 22:52:19.708,1.580798,1.703052,1.709427,1.693177
2020-11-15 22:52:19.725,1.581298,1.709552,1.711427,1.694427
2020-11-15 22:52:19.742,1.581798,1.707177,1.720553,1.694302
2020-11-15 22:52:19.759,1.580673,1.703177,1.717177,1.695177
2020-11-15 22:52:19.776,1.580298,1.694552,1.715552,1.695677
2020-11-15 22:52:19.793,1.581423,1.699302,1.708677,1.695552
2020-11-15 22:52:19.810,1.583673,1.701302,1.708302,1.694177
2020-11-15 22:52:19.827,1.583423,1.709927,1.709052,1.693802
2020-11-15 22:52:19.844,1.581798,1.708052,1.716427,1.693927
2020-11-15 22:52:19.861,1.579798,1.706677,1.720678,1.694177
2020-11-15 22:52:19.878,1.579798,1.702302,1.716052,1.695802
2020-11-15 22:52:19.895,1.581048,1.693427,1.713052,1.695302
2020-11-15 22:52:19.912,1.582048,1.700552,1.704052,1.695177
2020-11-15 22:52:19.929,1.583673,1.703927,1.708177,1.693552
2020-11-15 22:52:19.946,1.581923,1.713052,1.709302,1.693927
2020-11-15 22:52:19.963,1.580673,1.707177,1.716927,1.694427
2020-11-15 22:52:19.980,1.581298,1.705552,1.718552,1.694552
2020-11-15 22:52:19.997,1.580548,1.695802,1.715802,1.695927
2020-11-15 22:52:20.014,1.579923,1.698927,1.707927,1.695302
2020-11-15 22:52:20.030,1.583673,1.699552,1.703427,1.695052
2020-11-15 22:52:20.049,1.583673,1.702052,1.709052,1.694052
2020-11-15 22:52:20.066,1.583173,1.712052,1.709927,1.693552
2020-11-15 22:52:20.083,1.580548,1.708177,1.719552,1.693802
2020-11-15 22:52:20.100,1.581298,1.706802,1.717177,1.694552
2020-11-15 22:52:20.117,1.580173,1.699177,1.715802,1.695802
2020-11-15 22:52:20.134,1.580423,1.695927,1.711677,1.694677
2020-11-15 22:52:20.151,1.582548,1.701052,1.702677,1.694802
2020-11-15 22:52:20.168,1.583173,1.707302,1.708427,1.693427
2020-11-15 22:52:20.185,1.582298,1.710177,1.711052,1.693927
2020-11-15 22:52:20.202,1.581173,1.706927,1.720302,1.693802
2020-11-15 22:52:20.219,1.581673,1.703927,1.716302,1.695177
2020-11-15 22:52:20.236,1.580923,1.694802,1.714677,1.696302
2020-11-15 22:52:20.253,1.580673,1.699677,1.705052,1.695052
2020-11-15 22:52:20.270,1.583673,1.700802,1.708427,1.694677
2020-11-15 22:52:20.287,1.581673,1.708677,1.709677,1.692927
2020-11-15 22:52:20.304,1.582173,1.707802,1.714302,1.693427
2020-11-15 22:52:20.321,1.581798,1.706927,1.721928,1.693677
2020-11-15 22:52:20.338,1.580798,1.698802,1.715802,1.696427
2020-11-15 22:52:20.355,1.580923,1.697927,1.713052,1.695427
2020-11-15 22:52:20.372,1.579923,1.699927,1.704302,1.694552
2020-11-15 22:52:20.389,1.583798,1.703927,1.707302,1.694052
2020-11-15 22:52:20.406,1.583423,1.713552,1.709552,1.694177
2020-11-15 22:52:20.423,1.581298,1.707427,1.715927,1.694427
2020-11-15 22:52:20.440,1.579173,1.706177,1.717052,1.694802
2020-11-15 22:52:20.457,1.580298,1.697302,1.716302,1.695927
2020-11-15 22:52:20.474,1.581548,1.699177,1.709927,1.695177
2020-11-15 22:52:20.491,1.584048,1.699927,1.704927,1.694552
2020-11-15 22:52:20.508,1.582173,1.704052,1.709427,1.693302
2020-11-15 22:52:20.525,1.583048,1.712427,1.712177,1.694177
2020-11-15 22:52:20.542,1.581048,1.707052,1.722303,1.694802
2020-11-15 22:52:20.559,1.581548,1.702552,1.716427,1.696177
2020-11-15 22:52:20.575,1.580798,1.694552,1.715552,1.695552
2020-11-15 22:52:20.593,1.578798,1.700052,1.707552,1.695552
2020-11-15 22:52:20.610,1.584798,1.701302,1.706927,1.694802
2020-11-15 22:52:20.626,1.582298,1.711427,1.709677,1.693177
2020-11-15 22:52:20.643,1.580798,1.707552,1.717177,1.694177
2020-11-15 22:52:20.660,1.582048,1.706427,1.718552,1.693927
2020-11-15 22:52:20.678,1.579173,1.701302,1.715552,1.696052
2020-11-15 22:52:20.695,1.579173,1.694427,1.712427,1.694677
2020-11-15 22:52:20.711,1.583048,1.699927,1.702677,1.694427
2020-11-15 22:52:20.728,1.581173,1.702052,1.709052,1.693927
2020-11-15 22:52:20.745,1.581048,1.711427,1.709927,1.694177
2020-11-15 22:52:20.762,1.581923,1.706927,1.718677,1.693927
2020-11-15 22:52:20.779,1.581048,1.704552,1.716802,1.695177
2020-11-15 22:52:20.796,1.581423,1.695677,1.715552,1.695802
2020-11-15 22:52:20.813,1.580298,1.699802,1.711302,1.695677
2020-11-15 22:52:20.830,1.582173,1.700427,1.708677,1.694552
2020-11-15 22:52:20.847,1.583423,1.707177,1.709677,1.693052
2020-11-15 22:52:20.866,1.582923,1.712927,1.710552,1.693177
2020-11-15 22:52:20.883,1.581673,1.707177,1.720052,1.694177
2020-11-15 22:52:20.900,1.580923,1.706302,1.717177,1.694677
2020-11-15 22:52:20.917,1.580173,1.698177,1.715677,1.695552
2020-11-15 22:52:20.934,1.581548,1.698802,1.710177,1.695052
2020-11-15 22:52:20.951,1.584048,1.699427,1.703677,1.694552
2020-11-15 22:52:20.968,1.583173,1.709552,1.709302,1.693927
2020-11-15 22:52:20.985,1.581923,1.708302,1.711677,1.694177
2020-11-15 22:52:21.002,1.581673,1.706802,1.721303,1.694302
2020-11-15 22:52:21.019,1.581173,1.702802,1.716302,1.695802
2020-11-15 22:52:21.035,1.580548,1.693552,1.715052,1.695177
2020-11-15 22:52:21.052,1.581298,1.699927,1.704677,1.695427
2020-11-15 22:52:21.069,1.582173,1.701427,1.709552,1.694677
2020-11-15 22:52:21.086,1.583298,1.710552,1.709427,1.692927
2020-11-15 22:52:21.103,1.581923,1.707552,1.716802,1.694052
2020-11-15 22:52:21.120,1.581048,1.706302,1.719552,1.693927
2020-11-15 22:52:21.137,1.580798,1.701177,1.715677,1.697177
2020-11-15 22:52:21.154,1.578798,1.699302,1.711927,1.695802
2020-11-15 22:52:21.171,1.583548,1.700052,1.703052,1.695552
2020-11-15 22:52:21.188,1.581173,1.705177,1.708802,1.693552
2020-11-15 22:52:21.205,1.582048,1.713052,1.709302,1.694302
2020-11-15 22:52:21.222,1.580798,1.706927,1.717677,1.694177
2020-11-15 22:52:21.239,1.580548,1.705427,1.717177,1.695052
2020-11-15 22:52:21.257,1.579173,1.695552,1.715802,1.695927
2020-11-15 22:52:21.274,1.579798,1.699302,1.711552,1.694802
2020-11-15 22:52:21.291,1.582923,1.700302,1.701677,1.694177
2020-11-15 22:52:21.308,1.580798,1.706302,1.709177,1.693927
2020-11-15 22:52:21.325,1.582423,1.711177,1.712927,1.693802
2020-11-15 22:52:21.342,1.581923,1.706552,1.722803,1.694427
2020-11-15 22:52:21.359,1.580298,1.703927,1.716927,1.695052
2020-11-15 22:52:21.375,1.580673,1.694552,1.715052,1.695052
2020-11-15 22:52:21.392,1.580798,1.698927,1.705302,1.693927
2020-11-15 22:52:21.409,1.584048,1.702802,1.708052,1.694177
2020-11-15 22:52:21.426,1.582673,1.712677,1.708927,1.693802
2020-11-15 22:52:21.443,1.580673,1.707427,1.713052,1.693802
2020-11-15 22:52:21.460,1.581298,1.706802,1.722553,1.694927
2020-11-15 22:52:21.477,1.580673,1.699552,1.715427,1.696177
2020-11-15 22:52:21.494,1.580298,1.697177,1.711302,1.695302
2020-11-15 22:52:21.511,1.584298,1.699927,1.702677,1.694802
2020-11-15 22:52:21.528,1.582673,1.703302,1.709302,1.693552
2020-11-15 22:52:21.545,1.580423,1.713052,1.711052,1.693927
2020-11-15 22:52:21.562,1.582298,1.706927,1.720553,1.693302
2020-11-15 22:52:21.579,1.579548,1.703802,1.716427,1.695927
2020-11-15 22:52:21.596,1.581798,1.694427,1.715677,1.695427
2020-11-15 22:52:21.613,1.580923,1.699927,1.709427,1.695052
2020-11-15 22:52:21.630,1.583673,1.701177,1.704052,1.694052
2020-11-15 22:52:21.647,1.581673,1.709427,1.709302,1.693677
2020-11-15 22:52:21.664,1.579798,1.707177,1.710552,1.694302
2020-11-15 22:52:21.681,1.580298,1.706177,1.721928,1.694552
2020-11-15 22:52:21.699,1.579923,1.705552,1.717052,1.694927
2020-11-15 22:52:21.716,1.578423,1.696302,1.716052,1.696302
2020-11-15 22:52:21.734,1.581798,1.698802,1.708302,1.694927
2020-11-15 22:52:21.750,1.584798,1.700677,1.706177,1.694427
2020-11-15 22:52:21.768,1.581423,1.705052,1.709052,1.693552
2020-11-15 22:52:21.784,1.580173,1.712677,1.713052,1.693677
2020-11-15 22:52:21.802,1.581048,1.706677,1.721928,1.693927
2020-11-15 22:52:21.819,1.582173,1.703552,1.716427,1.696302
2020-11-15 22:52:21.835,1.579673,1.694927,1.715052,1.695552
2020-11-15 22:52:21.852,1.580798,1.700552,1.706302,1.695052
2020-11-15 22:52:21.869,1.583923,1.702177,1.708177,1.694552
2020-11-15 22:52:21.886,1.582173,1.712302,1.708552,1.693802
2020-11-15 22:52:21.903,1.579923,1.707927,1.712427,1.694177
2020-11-15 22:52:21.920,1.579048,1.706427,1.717677,1.694677
2020-11-15 22:52:21.937,1.580673,1.700302,1.716052,1.695677
2020-11-15 22:52:21.954,1.579923,1.696552,1.711802,1.695677
2020-11-15 22:52:21.971,1.582673,1.700052,1.702802,1.694802
2020-11-15 22:52:21.988,1.580923,1.703052,1.708677,1.693427
2020-11-15 22:52:22.005,1.580923,1.711802,1.710677,1.693302
2020-11-15 22:52:22.022,1.580173,1.706802,1.720302,1.694177
2020-11-15 22:52:22.039,1.581048,1.704052,1.716552,1.695802
2020-11-15 22:52:22.056,1.579923,1.695052,1.715927,1.695302
2020-11-15 22:52:22.073,1.579298,1.699302,1.710552,1.694677
2020-11-15 22:52:22.090,1.582298,1.700802,1.703302,1.693177
2020-11-15 22:52:22.107,1.579923,1.708927,1.709802,1.693427
2020-11-15 22:52:22.125,1.580548,1.708427,1.711302,1.694052
2020-11-15 22:52:22.142,1.579923,1.707427,1.720553,1.694427
2020-11-15 22:52:22.159,1.579923,1.703677,1.716177,1.695552
2020-11-15 22:52:22.176,1.579923,1.693927,1.715302,1.695552
2020-11-15 22:52:22.193,1.579423,1.700052,1.708177,1.694677
2020-11-15 22:52:22.210,1.583798,1.701052,1.705552,1.694802
2020-11-15 22:52:22.227,1.581673,1.710427,1.709802,1.692802
2020-11-15 22:52:22.244,1.581173,1.707677,1.716052,1.694052
2020-11-15 22:52:22.261,1.580298,1.706927,1.719802,1.693927
2020-11-15 22:52:22.278,1.579923,1.701552,1.715802,1.695302
2020-11-15 22:52:22.295,1.579048,1.694552,1.712927,1.694677
2020-11-15 22:52:22.312,1.581048,1.699927,1.704302,1.695052
2020-11-15 22:52:22.329,1.582173,1.704552,1.708302,1.693177
2020-11-15 22:52:22.346,1.581048,1.712927,1.709427,1.693927
2020-11-15 22:52:22.363,1.580673,1.706927,1.717802,1.694177
2020-11-15 22:52:22.380,1.579423,1.705302,1.717177,1.695052
2020-11-15 22:52:22.397,1.580423,1.696302,1.715677,1.696302
2020-11-15 22:52:22.414,1.579798,1.698927,1.711677,1.695177
2020-11-15 22:52:22.431,1.581173,1.700177,1.707927,1.695052
2020-11-15 22:52:22.448,1.580923,1.705927,1.709052,1.693677
2020-11-15 22:52:22.465,1.581173,1.711427,1.713052,1.693677
2020-11-15 22:52:22.482,1.580298,1.706427,1.723178,1.693802
2020-11-15 22:52:22.499,1.580048,1.704052,1.716552,1.693552
2020-11-15 22:52:22.517,1.581423,1.699052,1.715802,1.695427
2020-11-15 22:52:22.534,1.579298,1.697677,1.711927,1.695177
2020-11-15 22:52:22.551,1.582548,1.699427,1.703052,1.694177
2020-11-15 22:52:22.568,1.580923,1.707927,1.708552,1.693302
2020-11-15 22:52:22.585,1.581673,1.709052,1.711052,1.694302
2020-11-15 22:52:22.602,1.580173,1.707427,1.720678,1.694427
2020-11-15 22:52:22.619,1.580548,1.703302,1.716302,1.695427
2020-11-15 22:52:22.636,1.579423,1.694427,1.715177,1.695427
2020-11-15 22:52:22.653,1.580298,1.700052,1.705177,1.694677
2020-11-15 22:52:22.670,1.582548,1.700677,1.708427,1.694427
2020-11-15 22:52:22.687,1.581673,1.709177,1.708677,1.693552
2020-11-15 22:52:22.704,1.581173,1.708052,1.715427,1.693177
2020-11-15 22:52:22.721,1.579298,1.706802,1.720177,1.694052
2020-11-15 22:52:22.738,1.580173,1.702177,1.715927,1.695177
2020-11-15 22:52:22.755,1.579173,1.693177,1.712927,1.694927
2020-11-15 22:52:22.772,1.581548,1.700427,1.703927,1.695552
2020-11-15 22:52:22.789,1.582673,1.704177,1.708427,1.693927
2020-11-15 22:52:22.806,1.580548,1.713802,1.709177,1.693427
2020-11-15 22:52:22.823,1.580298,1.707302,1.716427,1.694177
2020-11-15 22:52:22.840,1.580798,1.705177,1.717427,1.695052
2020-11-15 22:52:22.857,1.580173,1.696302,1.715552,1.696177
2020-11-15 22:52:22.874,1.580423,1.699052,1.708052,1.694552
2020-11-15 22:52:22.891,1.583423,1.699802,1.706677,1.694427
2020-11-15 22:52:22.908,1.580423,1.704677,1.709552,1.693677
2020-11-15 22:52:22.925,1.580923,1.711802,1.712552,1.693177
2020-11-15 22:52:22.942,1.580423,1.706052,1.722178,1.693927
2020-11-15 22:52:22.959,1.580798,1.702052,1.716177,1.695927
2020-11-15 22:52:22.976,1.579798,1.694552,1.714927,1.695552
2020-11-15 22:52:22.993,1.581798,1.700177,1.706052,1.695427
2020-11-15 22:52:23.009,1.584173,1.702427,1.708177,1.694177
2020-11-15 22:52:23.026,1.581673,1.711177,1.708802,1.693802
2020-11-15 22:52:23.043,1.579923,1.707927,1.718802,1.693677
2020-11-15 22:52:23.060,1.580173,1.706552,1.716677,1.694427
2020-11-15 22:52:23.077,1.580048,1.699552,1.716177,1.696677
2020-11-15 22:52:23.094,1.581173,1.696177,1.711052,1.695052
2020-11-15 22:52:23.111,1.582048,1.699552,1.701927,1.694052
2020-11-15 22:52:23.128,1.581548,1.702802,1.709177,1.692927
2020-11-15 22:52:23.145,1.580548,1.711302,1.710427,1.693927
2020-11-15 22:52:23.162,1.581173,1.706552,1.719677,1.694052
2020-11-15 22:52:23.179,1.578798,1.703927,1.716802,1.695552
2020-11-15 22:52:23.196,1.579298,1.695302,1.715677,1.695177
2020-11-15 22:52:23.213,1.580048,1.699302,1.710552,1.695177
2020-11-15 22:52:23.230,1.582673,1.700802,1.702552,1.695052
2020-11-15 22:52:23.247,1.581423,1.708552,1.709677,1.693552
2020-11-15 22:52:23.264,1.580798,1.708302,1.714802,1.693802
2020-11-15 22:52:23.281,1.581298,1.706552,1.721678,1.693802
2020-11-15 22:52:23.298,1.581423,1.702427,1.716302,1.695552
2020-11-15 22:52:23.315,1.580173,1.693177,1.713802,1.695552
2020-11-15 22:52:23.332,1.581673,1.697927,1.708802,1.694177
2020-11-15 22:52:23.351,1.584423,1.699552,1.706177,1.693552
2020-11-15 22:52:23.368,1.581798,1.703802,1.708927,1.693552
2020-11-15 22:52:23.385,1.581798,1.707677,1.712802,1.694302
2020-11-15 22:52:23.402,1.580673,1.706427,1.722053,1.694802
2020-11-15 22:52:23.419,1.580673,1.701677,1.715427,1.695927
2020-11-15 22:52:23.436,1.579673,1.694802,1.715302,1.695177
2020-11-15 22:52:23.453,1.580673,1.699927,1.705927,1.695302
2020-11-15 22:52:23.469,1.583423,1.701677,1.708927,1.694802
2020-11-15 22:52:23.486,1.581298,1.711177,1.709427,1.692927
2020-11-15 22:52:23.503,1.581173,1.707677,1.717927,1.693927
2020-11-15 22:52:23.520,1.579173,1.706177,1.717177,1.694427
2020-11-15 22:52:23.538,1.579298,1.700552,1.715552,1.696427
2020-11-15 22:52:23.555,1.578798,1.695802,1.711802,1.695052
2020-11-15 22:52:23.572,1.583298,1.699677,1.702677,1.694552
2020-11-15 22:52:23.589,1.581298,1.702302,1.708552,1.693802
2020-11-15 22:52:23.606,1.580673,1.711677,1.709802,1.693177
2020-11-15 22:52:23.623,1.581548,1.706927,1.719677,1.693427
2020-11-15 22:52:23.640,1.581173,1.705302,1.716677,1.695802
2020-11-15 22:52:23.657,1.578048,1.694677,1.715302,1.695677
2020-11-15 22:52:23.674,1.579423,1.699677,1.710802,1.695177
2020-11-15 22:52:23.691,1.581548,1.700552,1.703177,1.694552
2020-11-15 22:52:23.708,1.581423,1.707677,1.707302,1.692552
2020-11-15 22:52:23.725,1.580673,1.709052,1.714302,1.693677
2020-11-15 22:52:23.742,1.580298,1.706552,1.722178,1.694552
2020-11-15 22:52:23.759,1.579048,1.702552,1.715927,1.694677
2020-11-15 22:52:23.776,1.578423,1.693552,1.712927,1.694927
2020-11-15 22:52:23.793,1.580798,1.699052,1.704677,1.694427
2020-11-15 22:52:23.810,1.582798,1.700927,1.708552,1.693552
2020-11-15 22:52:23.826,1.581673,1.709677,1.709677,1.694052
2020-11-15 22:52:23.843,1.580673,1.707052,1.715552,1.694677
2020-11-15 22:52:23.860,1.580548,1.706177,1.719427,1.694302
2020-11-15 22:52:23.877,1.579798,1.697177,1.715552,1.696677
2020-11-15 22:52:23.894,1.579798,1.699177,1.712052,1.694677
2020-11-15 22:52:23.911,1.580048,1.700177,1.703177,1.694802
2020-11-15 22:52:23.928,1.581923,1.704302,1.708927,1.693802
2020-11-15 22:52:23.945,1.580048,1.713052,1.712052,1.693677
2020-11-15 22:52:23.962,1.580173,1.706677,1.721303,1.693802
2020-11-15 22:52:23.979,1.580923,1.704677,1.716802,1.693927
2020-11-15 22:52:23.996,1.579548,1.695677,1.715552,1.696052
2020-11-15 22:52:24.013,1.581048,1.698427,1.708177,1.695177
2020-11-15 22:52:24.030,1.582298,1.700177,1.707052,1.694302
2020-11-15 22:52:24.047,1.581048,1.710427,1.709052,1.693177
2020-11-15 22:52:24.064,1.580048,1.708052,1.711927,1.694177
2020-11-15 22:52:24.081,1.579048,1.706552,1.722428,1.694427
2020-11-15 22:52:24.098,1.579423,1.701177,1.715927,1.696052
2020-11-15 22:52:24.115,1.580048,1.694927,1.713677,1.695302
2020-11-15 22:52:24.132,1.579423,1.699677,1.704802,1.695552
2020-11-15 22:52:24.149,1.581673,1.702052,1.708052,1.693802
2020-11-15 22:52:24.168,1.581673,1.707302,1.709302,1.693177
2020-11-15 22:52:24.185,1.580048,1.709052,1.714052,1.693552
2020-11-15 22:52:24.202,1.579298,1.706427,1.722678,1.693302
2020-11-15 22:52:24.219,1.580048,1.703302,1.715927,1.695177
2020-11-15 22:52:24.236,1.579048,1.693552,1.713427,1.694177
2020-11-15 22:52:24.253,1.581423,1.699552,1.704677,1.694802
2020-11-15 22:52:24.270,1.583048,1.703677,1.707927,1.693677
2020-11-15 22:52:24.286,1.579798,1.712427,1.709177,1.693802
2020-11-15 22:52:24.303,1.579798,1.706927,1.714302,1.693677
2020-11-15 22:52:24.320,1.579673,1.705927,1.720052,1.694427
2020-11-15 22:52:24.337,1.579173,1.697552,1.715177,1.695802
2020-11-15 22:52:24.354,1.579048,1.698927,1.710177,1.694552
2020-11-15 22:52:24.371,1.581798,1.699552,1.704302,1.694802
2020-11-15 22:52:24.388,1.582923,1.703802,1.708927,1.692802
2020-11-15 22:52:24.405,1.581298,1.713177,1.711677,1.693427
2020-11-15 22:52:24.422,1.579298,1.706177,1.721428,1.693302
2020-11-15 22:52:24.439,1.579673,1.704427,1.716677,1.695927
2020-11-15 22:52:24.456,1.579548,1.693677,1.715177,1.694927
2020-11-15 22:52:24.473,1.580423,1.699802,1.707927,1.695302
2020-11-15 22:52:24.490,1.582298,1.701177,1.705927,1.694302
2020-11-15 22:52:24.507,1.582048,1.709927,1.708802,1.693177
2020-11-15 22:52:24.524,1.579673,1.706927,1.711302,1.693552
2020-11-15 22:52:24.541,1.578548,1.706552,1.721678,1.694552
2020-11-15 22:52:24.558,1.578673,1.701552,1.715302,1.695802
2020-11-15 22:52:24.575,1.580048,1.694177,1.711427,1.695177
2020-11-15 22:52:24.592,1.580423,1.700052,1.703052,1.694802
2020-11-15 22:52:24.609,1.581048,1.701052,1.708302,1.693677
2020-11-15 22:52:24.626,1.581673,1.711052,1.709552,1.693177
2020-11-15 22:52:24.643,1.580673,1.706802,1.718302,1.693052
2020-11-15 22:52:24.660,1.578548,1.706052,1.716677,1.693927
2020-11-15 22:52:24.677,1.580298,1.699052,1.715802,1.695177
2020-11-15 22:52:24.694,1.580423,1.699052,1.711302,1.694927
2020-11-15 22:52:24.711,1.581048,1.699802,1.702677,1.694552
2020-11-15 22:52:24.728,1.580173,1.706802,1.708302,1.692427
2020-11-15 22:52:24.745,1.579923,1.711302,1.710677,1.693927
2020-11-15 22:52:24.762,1.579548,1.706302,1.719802,1.693802
2020-11-15 22:52:24.779,1.579423,1.703552,1.715677,1.695302
2020-11-15 22:52:24.796,1.578923,1.695177,1.714552,1.695052
2020-11-15 22:52:24.813,1.579923,1.698677,1.705302,1.694552
2020-11-15 22:52:24.830,1.583798,1.700552,1.708677,1.693927
2020-11-15 22:52:24.847,1.581298,1.707177,1.709427,1.693427
2020-11-15 22:52:24.864,1.579798,1.707427,1.714052,1.693677
2020-11-15 22:52:24.881,1.579923,1.706052,1.721428,1.693802
2020-11-15 22:52:24.898,1.579798,1.699052,1.715677,1.695552
2020-11-15 22:52:24.915,1.580048,1.698052,1.713302,1.694802
2020-11-15 22:52:24.932,1.579923,1.699802,1.703802,1.694927
2020-11-15 22:52:24.949,1.581423,1.703677,1.707927,1.694552
2020-11-15 22:52:24.966,1.580798,1.712302,1.708552,1.693802
2020-11-15 22:52:24.983,1.579673,1.706427,1.711927,1.693802
2020-11-15 22:52:25.002,1.579923,1.706552,1.721178,1.694177
2020-11-15 22:52:25.019,1.580173,1.701927,1.715802,1.695552
2020-11-15 22:52:25.036,1.580423,1.693552,1.712802,1.695302
2020-11-15 22:52:25.053,1.581548,1.699427,1.703052,1.695427
2020-11-15 22:52:25.070,1.582173,1.701427,1.708177,1.693177
2020-11-15 22:52:25.087,1.579548,1.711302,1.709552,1.692802
2020-11-15 22:52:25.104,1.579798,1.707052,1.718052,1.693177
2020-11-15 22:52:25.120,1.578923,1.705302,1.717177,1.693177
2020-11-15 22:52:25.138,1.579173,1.695677,1.715802,1.696177
2020-11-15 22:52:25.155,1.579048,1.698552,1.711552,1.695302
2020-11-15 22:52:25.171,1.581048,1.700052,1.702052,1.694552
2020-11-15 22:52:25.189,1.579923,1.705302,1.708177,1.693177
2020-11-15 22:52:25.205,1.581548,1.711052,1.709552,1.693427
2020-11-15 22:52:25.222,1.577923,1.706927,1.722553,1.693677
2020-11-15 22:52:25.239,1.578548,1.703552,1.715677,1.695427
2020-11-15 22:52:25.256,1.580173,1.695302,1.714802,1.695302
2020-11-15 22:52:25.273,1.579173,1.698302,1.705177,1.694802
2020-11-15 22:52:25.290,1.583298,1.700302,1.708302,1.693677
2020-11-15 22:52:25.307,1.580423,1.706802,1.709552,1.692552
2020-11-15 22:52:25.324,1.580048,1.709052,1.713427,1.693802
2020-11-15 22:52:25.341,1.578923,1.706177,1.722428,1.694427
2020-11-15 22:52:25.358,1.578298,1.699302,1.714927,1.696302
2020-11-15 22:52:25.375,1.579048,1.698177,1.713427,1.695302
2020-11-15 22:52:25.392,1.580048,1.700052,1.703927,1.695427
2020-11-15 22:52:25.409,1.581548,1.703427,1.707177,1.694302
2020-11-15 22:52:25.426,1.580798,1.712302,1.710802,1.693302
2020-11-15 22:52:25.443,1.578798,1.706802,1.720803,1.694052
2020-11-15 22:52:25.460,1.578423,1.705552,1.716927,1.695177
2020-11-15 22:52:25.477,1.579298,1.696552,1.715302,1.695927
2020-11-15 22:52:25.494,1.580298,1.698927,1.709802,1.695177
2020-11-15 22:52:25.511,1.581673,1.699552,1.704302,1.693427
2020-11-15 22:52:25.528,1.580923,1.703802,1.709177,1.693427
2020-11-15 22:52:25.545,1.581423,1.707927,1.711427,1.694177
2020-11-15 22:52:25.562,1.581048,1.706177,1.721303,1.693802
2020-11-15 22:52:25.579,1.578298,1.702552,1.716677,1.695802
2020-11-15 22:52:25.596,1.579423,1.693802,1.714677,1.694677
2020-11-15 22:52:25.613,1.578923,1.699802,1.706552,1.694802
2020-11-15 22:52:25.630,1.582673,1.701427,1.708177,1.693427
2020-11-15 22:52:25.647,1.580298,1.710677,1.708927,1.692552
2020-11-15 22:52:25.664,1.580298,1.707552,1.716427,1.693302
2020-11-15 22:52:25.681,1.578798,1.706552,1.718302,1.693802
2020-11-15 22:52:25.698,1.579048,1.701427,1.715427,1.695802
2020-11-15 22:52:25.715,1.579423,1.694302,1.711802,1.694677
2020-11-15 22:52:25.732,1.581423,1.699552,1.702802,1.694552
2020-11-15 22:52:25.749,1.580298,1.704927,1.708302,1.693427
2020-11-15 22:52:25.766,1.579298,1.711677,1.709177,1.693552
2020-11-15 22:52:25.783,1.580673,1.706677,1.718927,1.693677
2020-11-15 22:52:25.800,1.579173,1.706802,1.716427,1.693177
2020-11-15 22:52:25.819,1.578048,1.702552,1.715677,1.694302
2020-11-15 22:52:25.836,1.578798,1.694177,1.713802,1.694927
2020-11-15 22:52:25.853,1.579548,1.699302,1.704427,1.694677
2020-11-15 22:52:25.870,1.583173,1.700427,1.707927,1.694052
2020-11-15 22:52:25.887,1.579923,1.708302,1.709802,1.693052
2020-11-15 22:52:25.904,1.581298,1.707302,1.714552,1.693677
2020-11-15 22:52:25.921,1.579173,1.705927,1.720177,1.693552
2020-11-15 22:52:25.938,1.579548,1.701927,1.716427,1.696552
2020-11-15 22:52:25.955,1.578423,1.698802,1.712927,1.694427
2020-11-15 22:52:25.972,1.580798,1.699677,1.703427,1.694802
2020-11-15 22:52:25.989,1.582298,1.704552,1.707552,1.693677
2020-11-15 22:52:26.006,1.579673,1.713302,1.709302,1.694052
2020-11-15 22:52:26.023,1.580423,1.706927,1.716177,1.694052
2020-11-15 22:52:26.040,1.580173,1.705552,1.717802,1.694802
2020-11-15 22:52:26.057,1.580173,1.696177,1.714677,1.696552
2020-11-15 22:52:26.074,1.579923,1.698927,1.708177,1.695427
2020-11-15 22:52:26.091,1.583048,1.700427,1.706177,1.694177
2020-11-15 22:52:26.108,1.580673,1.704927,1.709177,1.693552
2020-11-15 22:52:26.125,1.580298,1.712802,1.712552,1.693052
2020-11-15 22:52:26.142,1.580298,1.706052,1.721553,1.693302
2020-11-15 22:52:26.159,1.579173,1.704677,1.716427,1.694427
2020-11-15 22:52:26.176,1.578673,1.694427,1.715177,1.695302
2020-11-15 22:52:26.193,1.579048,1.699927,1.706552,1.695302
2020-11-15 22:52:26.210,1.583298,1.702052,1.707427,1.694052
2020-11-15 22:52:26.227,1.579798,1.710802,1.709427,1.693552
2020-11-15 22:52:26.244,1.579798,1.707552,1.712552,1.694052
2020-11-15 22:52:26.261,1.579923,1.706802,1.721803,1.694302
2020-11-15 22:52:26.278,1.578298,1.699927,1.715427,1.695927
2020-11-15 22:52:26.295,1.579673,1.695927,1.711927,1.695052
2020-11-15 22:52:26.312,1.582173,1.699927,1.702427,1.694302
2020-11-15 22:52:26.329,1.580173,1.702052,1.708677,1.693427
2020-11-15 22:52:26.346,1.581048,1.711427,1.710427,1.692927
2020-11-15 22:52:26.363,1.580298,1.706552,1.720553,1.692927
2020-11-15 22:52:26.380,1.579423,1.705677,1.716302,1.694427
2020-11-15 22:52:26.397,1.579173,1.695427,1.715302,1.695552
2020-11-15 22:52:26.414,1.579423,1.699052,1.710677,1.695302
2020-11-15 22:52:26.431,1.581298,1.700427,1.702677,1.694427
2020-11-15 22:52:26.448,1.581798,1.707677,1.708427,1.692802
2020-11-15 22:52:26.465,1.580548,1.708802,1.709927,1.693302
2020-11-15 22:52:26.482,1.579423,1.706302,1.721678,1.693677
2020-11-15 22:52:26.499,1.579798,1.703052,1.716302,1.694677
2020-11-15 22:52:26.516,1.579048,1.693927,1.714302,1.694302
2020-11-15 22:52:26.533,1.580173,1.699552,1.704052,1.694427
2020-11-15 22:52:26.550,1.581923,1.700177,1.708302,1.693677
2020-11-15 22:52:26.567,1.580548,1.709302,1.709302,1.692802
2020-11-15 22:52:26.584,1.580048,1.707177,1.715427,1.693927
2020-11-15 22:52:26.601,1.579923,1.705427,1.719302,1.694427
2020-11-15 22:52:26.618,1.578923,1.697302,1.715427,1.696302
2020-11-15 22:52:26.635,1.579298,1.692552,1.714552,1.694802
2020-11-15 22:52:26.653,1.579173,1.699802,1.706802,1.694302
2020-11-15 22:52:26.670,1.582048,1.701302,1.707052,1.694052
2020-11-15 22:52:26.687,1.580423,1.711052,1.707927,1.693427
2020-11-15 22:52:26.704,1.580173,1.707802,1.717177,1.693677
2020-11-15 22:52:26.721,1.580173,1.705677,1.717927,1.694302
2020-11-15 22:52:26.738,1.580048,1.700802,1.715427,1.695302
2020-11-15 22:52:26.755,1.579298,1.694552,1.712052,1.694427
2020-11-15 22:52:26.772,1.581423,1.698177,1.702552,1.694677
2020-11-15 22:52:26.789,1.580673,1.705302,1.708927,1.692927
2020-11-15 22:52:26.806,1.580798,1.711427,1.709927,1.694052
2020-11-15 22:52:26.823,1.580923,1.706052,1.718927,1.694427
2020-11-15 22:52:26.840,1.579048,1.703927,1.716552,1.694802
2020-11-15 22:52:26.857,1.579798,1.695677,1.714427,1.695677
2020-11-15 22:52:26.874,1.578923,1.699177,1.709677,1.694927
2020-11-15 22:52:26.891,1.583673,1.700177,1.707677,1.694177
2020-11-15 22:52:26.908,1.581048,1.706677,1.709177,1.692677
2020-11-15 22:52:26.925,1.580048,1.708927,1.713052,1.692927
2020-11-15 22:52:26.942,1.579423,1.706052,1.722553,1.692802
2020-11-15 22:52:26.959,1.580048,1.702677,1.715427,1.696302
2020-11-15 22:52:26.976,1.578923,1.696677,1.714052,1.695302
2020-11-15 22:52:26.993,1.580173,1.700052,1.704677,1.694677
2020-11-15 22:52:27.010,1.583173,1.703302,1.707552,1.694302
2020-11-15 22:52:27.027,1.580673,1.712427,1.709052,1.693052
2020-11-15 22:52:27.044,1.581798,1.707052,1.714177,1.693427
2020-11-15 22:52:27.061,1.577798,1.706302,1.716427,1.694177
2020-11-15 22:52:27.078,1.578798,1.697552,1.715427,1.695927
2020-11-15 22:52:27.095,1.579673,1.698552,1.709802,1.694552
2020-11-15 22:52:27.112,1.582173,1.700052,1.703802,1.694552
2020-11-15 22:52:27.129,1.581673,1.704052,1.708927,1.692927
2020-11-15 22:52:27.146,1.580423,1.713177,1.711552,1.693427
2020-11-15 22:52:27.163,1.578673,1.706427,1.720803,1.693177
2020-11-15 22:52:27.180,1.579298,1.704302,1.716677,1.693927
2020-11-15 22:52:27.197,1.579173,1.695802,1.715177,1.695177
2020-11-15 22:52:27.214,1.579548,1.699302,1.707677,1.694927
2020-11-15 22:52:27.231,1.583173,1.701302,1.706302,1.694427
2020-11-15 22:52:27.248,1.580173,1.710052,1.708427,1.693052
2020-11-15 22:52:27.265,1.579298,1.707552,1.711677,1.694177
2020-11-15 22:52:27.282,1.578798,1.706177,1.720803,1.693677
2020-11-15 22:52:27.299,1.579173,1.701677,1.715177,1.695177
2020-11-15 22:52:27.316,1.578548,1.693927,1.712427,1.694677
2020-11-15 22:52:27.333,1.581673,1.699677,1.702427,1.694052
2020-11-15 22:52:27.350,1.582173,1.700927,1.707927,1.692927
2020-11-15 22:52:27.367,1.580548,1.710052,1.709552,1.693927
2020-11-15 22:52:27.384,1.580173,1.706427,1.718177,1.694052
2020-11-15 22:52:27.401,1.578423,1.704427,1.716802,1.694302
2020-11-15 22:52:27.418,1.579673,1.695052,1.715052,1.696052
2020-11-15 22:52:27.435,1.579798,1.698927,1.710927,1.694177
2020-11-15 22:52:27.452,1.580548,1.700302,1.701802,1.693177
2020-11-15 22:52:27.470,1.582423,1.703052,1.707302,1.693552
2020-11-15 22:52:27.487,1.581298,1.711802,1.708677,1.693427
2020-11-15 22:52:27.504,1.579673,1.707052,1.719427,1.693177
2020-11-15 22:52:27.521,1.579048,1.705802,1.716927,1.693677
2020-11-15 22:52:27.538,1.580048,1.697302,1.715677,1.695302
2020-11-15 22:52:27.555,1.579298,1.697677,1.710302,1.694552
2020-11-15 22:52:27.572,1.583173,1.699302,1.703052,1.693677
2020-11-15 22:52:27.589,1.581423,1.707927,1.709052,1.693302
2020-11-15 22:52:27.606,1.580298,1.708427,1.711052,1.693677
2020-11-15 22:52:27.623,1.579298,1.706552,1.719927,1.693552
2020-11-15 22:52:27.640,1.578923,1.702427,1.715802,1.695427
2020-11-15 22:52:27.657,1.579173,1.693552,1.714552,1.695052
2020-11-15 22:52:27.674,1.578798,1.698802,1.704552,1.694677
2020-11-15 22:52:27.691,1.581298,1.700677,1.707677,1.694052
2020-11-15 22:52:27.708,1.581173,1.709427,1.708802,1.692802
2020-11-15 22:52:27.725,1.580423,1.706427,1.715427,1.693302
2020-11-15 22:52:27.742,1.579548,1.705802,1.719552,1.693677
2020-11-15 22:52:27.759,1.577923,1.701177,1.715177,1.696052
2020-11-15 22:52:27.775,1.579548,1.699052,1.712052,1.695302
2020-11-15 22:52:27.792,1.578798,1.699802,1.703427,1.694427
2020-11-15 22:52:27.809,1.580923,1.704302,1.708052,1.693802
2020-11-15 22:52:27.826,1.580173,1.713177,1.708802,1.693302
2020-11-15 22:52:27.843,1.577298,1.705927,1.716052,1.693927
2020-11-15 22:52:27.860,1.579048,1.704677,1.716177,1.694302
2020-11-15 22:52:27.877,1.579173,1.695177,1.714927,1.695802
2020-11-15 22:52:27.894,1.579298,1.698052,1.707302,1.694177
2020-11-15 22:52:27.911,1.582423,1.699677,1.706927,1.694052
2020-11-15 22:52:27.928,1.580548,1.705177,1.708677,1.692927
2020-11-15 22:52:27.945,1.579298,1.710802,1.712927,1.693427
2020-11-15 22:52:27.962,1.579173,1.706427,1.722428,1.693802
2020-11-15 22:52:27.979,1.579048,1.700677,1.715677,1.695677
2020-11-15 22:52:27.996,1.579048,1.694552,1.713927,1.694802
2020-11-15 22:52:28.013,1.578923,1.699927,1.704927,1.694302
2020-11-15 22:52:28.030,1.581173,1.702802,1.707302,1.693552
2020-11-15 22:52:28.047,1.580048,1.711927,1.708677,1.692802
2020-11-15 22:52:28.064,1.579298,1.707677,1.718677,1.693552
2020-11-15 22:52:28.081,1.579548,1.706177,1.716302,1.694052
2020-11-15 22:52:28.098,1.579048,1.699052,1.715302,1.695177
2020-11-15 22:52:28.115,1.578173,1.695802,1.710927,1.694177
2020-11-15 22:52:28.132,1.581298,1.699302,1.703302,1.694552
2020-11-15 22:52:28.149,1.580673,1.702677,1.708177,1.693677
2020-11-15 22:52:28.167,1.578798,1.712427,1.710427,1.692927
2020-11-15 22:52:28.183,1.580548,1.706177,1.719677,1.693552
2020-11-15 22:52:28.200,1.579173,1.705552,1.716427,1.693927
2020-11-15 22:52:28.217,1.579048,1.696427,1.715427,1.694927
2020-11-15 22:52:28.234,1.580423,1.699052,1.709427,1.695427
2020-11-15 22:52:28.251,1.582798,1.700177,1.703927,1.693927
2020-11-15 22:52:28.268,1.580173,1.708802,1.708302,1.692802
2020-11-15 22:52:28.285,1.579423,1.712177,1.708927,1.693177
2020-11-15 22:52:28.304,1.579673,1.706427,1.716177,1.693802
2020-11-15 22:52:28.321,1.579423,1.704677,1.717177,1.694302
2020-11-15 22:52:28.338,1.578798,1.695927,1.715302,1.695427
2020-11-15 22:52:28.355,1.580173,1.698052,1.708302,1.694552
2020-11-15 22:52:28.372,1.582798,1.700052,1.706052,1.694177
2020-11-15 22:52:28.389,1.580298,1.704302,1.708677,1.693677
2020-11-15 22:52:28.406,1.580548,1.711552,1.711802,1.692802
2020-11-15 22:52:28.423,1.579798,1.705427,1.722178,1.693927
2020-11-15 22:52:28.440,1.578923,1.701302,1.716552,1.695052
2020-11-15 22:52:28.456,1.578798,1.693302,1.714802,1.695552
2020-11-15 22:52:28.473,1.579923,1.699552,1.705677,1.695177
2020-11-15 22:52:28.490,1.582298,1.701552,1.707427,1.693677
2020-11-15 22:52:28.507,1.580298,1.710802,1.708302,1.693677
2020-11-15 22:52:28.524,1.580173,1.707802,1.717927,1.693552
2020-11-15 22:52:28.541,1.579673,1.705927,1.716802,1.693927
2020-11-15 22:52:28.558,1.578298,1.699677,1.715427,1.695302
2020-11-15 22:52:28.575,1.579923,1.695427,1.712052,1.694427
2020-11-15 22:52:28.592,1.581798,1.699177,1.702552,1.693427
2020-11-15 22:52:28.609,1.581798,1.701427,1.709177,1.693177
2020-11-15 22:52:28.626,1.580298,1.711052,1.710302,1.693677
2020-11-15 22:52:28.643,1.579298,1.706927,1.719552,1.693802
2020-11-15 22:52:28.660,1.577423,1.702927,1.716552,1.695177
2020-11-15 22:52:28.677,1.578423,1.694302,1.714927,1.695177
2020-11-15 22:52:28.694,1.579673,1.699052,1.710177,1.694427
2020-11-15 22:52:28.711,1.581048,1.700427,1.702052,1.694177
2020-11-15 22:52:28.728,1.581298,1.707927,1.709177,1.692927
2020-11-15 22:52:28.745,1.581173,1.708427,1.713552,1.693177
2020-11-15 22:52:28.762,1.579048,1.706302,1.722053,1.693427
2020-11-15 22:52:28.779,1.578548,1.701552,1.715177,1.693927
2020-11-15 22:52:28.796,1.579673,1.693052,1.713427,1.693677
2020-11-15 22:52:28.813,1.579923,1.699427,1.704052,1.694677
2020-11-15 22:52:28.830,1.583048,1.703177,1.707052,1.693552
2020-11-15 22:52:28.847,1.581548,1.712802,1.709177,1.693802
2020-11-15 22:52:28.864,1.579423,1.706927,1.714802,1.693552
2020-11-15 22:52:28.881,1.580173,1.705677,1.719177,1.694177
2020-11-15 22:52:28.898,1.578298,1.696052,1.714927,1.696052
2020-11-15 22:52:28.915,1.578798,1.698552,1.709677,1.694927
2020-11-15 22:52:28.932,1.582298,1.699552,1.704927,1.694427
2020-11-15 22:52:28.949,1.581048,1.703302,1.708802,1.692677
2020-11-15 22:52:28.966,1.580923,1.712552,1.711302,1.693052
2020-11-15 22:52:28.983,1.579298,1.706177,1.720803,1.693427
2020-11-15 22:52:29.000,1.580923,1.704177,1.715802,1.695177
2020-11-15 22:52:29.017,1.579173,1.693677,1.715802,1.695052
2020-11-15 22:52:29.034,1.579798,1.699927,1.707552,1.694052
2020-11-15 22:52:29.051,1.581673,1.700677,1.706177,1.694177
2020-11-15 22:52:29.068,1.580298,1.710927,1.708552,1.692552
2020-11-15 22:52:29.085,1.579423,1.707802,1.712552,1.693802
2020-11-15 22:52:29.102,1.579548,1.705427,1.721553,1.692677
2020-11-15 22:52:29.120,1.578798,1.703802,1.715552,1.694802
2020-11-15 22:52:29.137,1.578173,1.695177,1.714802,1.695302
2020-11-15 22:52:29.154,1.579173,1.698677,1.705177,1.695052
2020-11-15 22:52:29.171,1.583298,1.700052,1.708177,1.694802
2020-11-15 22:52:29.188,1.580673,1.706802,1.709177,1.692927
2020-11-15 22:52:29.205,1.580548,1.709177,1.712677,1.693427
2020-11-15 22:52:29.222,1.580173,1.706052,1.721928,1.693052
2020-11-15 22:52:29.239,1.580173,1.702177,1.715552,1.696302
2020-11-15 22:52:29.256,1.577798,1.696677,1.713427,1.694802
2020-11-15 22:52:29.273,1.578673,1.699177,1.704177,1.694302
2020-11-15 22:52:29.290,1.583298,1.702552,1.707802,1.693302
2020-11-15 22:52:29.307,1.579923,1.712677,1.708552,1.693177
2020-11-15 22:52:29.324,1.579048,1.706927,1.713177,1.693927
2020-11-15 22:52:29.341,1.578673,1.705802,1.716552,1.694427
2020-11-15 22:52:29.358,1.578798,1.698052,1.715177,1.695302
2020-11-15 22:52:29.375,1.578798,1.698427,1.709927,1.694302
2020-11-15 22:52:29.392,1.582798,1.699427,1.703302,1.694427
2020-11-15 22:52:29.409,1.580423,1.703427,1.708927,1.692677
2020-11-15 22:52:29.426,1.579423,1.712802,1.710927,1.693052
2020-11-15 22:52:29.443,1.579923,1.706177,1.720428,1.693052
2020-11-15 22:52:29.460,1.580048,1.702677,1.716552,1.695052
2020-11-15 22:52:29.477,1.578423,1.692927,1.714677,1.694927
2020-11-15 22:52:29.494,1.578798,1.699677,1.707802,1.694302
2020-11-15 22:52:29.511,1.582048,1.700677,1.705177,1.693927
2020-11-15 22:52:29.528,1.580798,1.710552,1.707677,1.693052
2020-11-15 22:52:29.545,1.578798,1.707177,1.710927,1.692927
2020-11-15 22:52:29.562,1.580298,1.705677,1.719552,1.693552
2020-11-15 22:52:29.579,1.578798,1.701677,1.715302,1.695052
2020-11-15 22:52:29.596,1.578673,1.693552,1.712927,1.694427
2020-11-15 22:52:29.613,1.580298,1.699677,1.703052,1.694302
2020-11-15 22:52:29.630,1.581048,1.700802,1.707552,1.692927
2020-11-15 22:52:29.647,1.580923,1.710802,1.709302,1.693552
2020-11-15 22:52:29.664,1.579423,1.706677,1.717802,1.693302
2020-11-15 22:52:29.681,1.580298,1.704552,1.716427,1.694177
2020-11-15 22:52:29.698,1.579798,1.695427,1.715802,1.695677
2020-11-15 22:52:29.715,1.580048,1.698552,1.710677,1.694427
2020-11-15 22:52:29.732,1.581173,1.700052,1.701802,1.694302
2020-11-15 22:52:29.749,1.580923,1.706302,1.707802,1.693427
2020-11-15 22:52:29.766,1.579923,1.711177,1.712427,1.693677
2020-11-15 22:52:29.783,1.579298,1.706927,1.722178,1.692552
2020-11-15 22:52:29.800,1.578923,1.703552,1.715802,1.694427
2020-11-15 22:52:29.817,1.579173,1.694552,1.714802,1.694552
2020-11-15 22:52:29.834,1.579923,1.698177,1.704927,1.693927
2020-11-15 22:52:29.851,1.581423,1.699052,1.707552,1.693302
2020-11-15 22:52:29.868,1.581423,1.711927,1.709302,1.693177
2020-11-15 22:52:29.885,1.580298,1.706927,1.713427,1.693552
2020-11-15 22:52:29.902,1.578923,1.705802,1.721053,1.694302
2020-11-15 22:52:29.919,1.577673,1.699802,1.715677,1.695427
2020-11-15 22:52:29.936,1.579298,1.693052,1.714552,1.695052
2020-11-15 22:52:29.954,1.578923,1.699427,1.709302,1.695177
2020-11-15 22:52:29.971,1.582548,1.700427,1.703927,1.694427
2020-11-15 22:52:29.988,1.579798,1.708927,1.707927,1.693427
2020-11-15 22:52:30.005,1.579673,1.707552,1.714802,1.693427
2020-11-15 22:52:30.022,1.579423,1.706427,1.720928,1.693677
2020-11-15 22:52:30.039,1.578048,1.702552,1.715552,1.694802
2020-11-15 22:52:30.056,1.578548,1.693427,1.712802,1.694677
2020-11-15 22:52:30.073,1.581048,1.699677,1.704677,1.694052
2020-11-15 22:52:30.090,1.582423,1.700427,1.707927,1.693302
2020-11-15 22:52:30.107,1.579923,1.709552,1.709302,1.692302
2020-11-15 22:52:30.124,1.580173,1.706552,1.716177,1.693552
2020-11-15 22:52:30.141,1.580423,1.705177,1.717802,1.694427
2020-11-15 22:52:30.158,1.578923,1.696177,1.715677,1.696052
2020-11-15 22:52:30.175,1.580423,1.699302,1.711677,1.695177
2020-11-15 22:52:30.192,1.580298,1.700302,1.703177,1.694927
2020-11-15 22:52:30.209,1.580923,1.704802,1.707427,1.693677
2020-11-15 22:52:30.226,1.580673,1.711802,1.709302,1.693927
2020-11-15 22:52:30.243,1.579423,1.706802,1.717552,1.693927
2020-11-15 22:52:30.260,1.579298,1.704427,1.716052,1.694427
2020-11-15 22:52:30.277,1.579173,1.694927,1.715427,1.695427
2020-11-15 22:52:30.294,1.580423,1.698802,1.707552,1.694927
2020-11-15 22:52:30.311,1.583548,1.699927,1.708302,1.693802
2020-11-15 22:52:30.328,1.581923,1.705177,1.709177,1.692677
2020-11-15 22:52:30.345,1.580048,1.709552,1.712177,1.693427
2020-11-15 22:52:30.362,1.579798,1.706302,1.722678,1.693927
2020-11-15 22:52:30.379,1.579673,1.700052,1.715677,1.695552
2020-11-15 22:52:30.396,1.578423,1.696052,1.714052,1.694802
2020-11-15 22:52:30.413,1.581423,1.699802,1.704052,1.694802
2020-11-15 22:52:30.430,1.583423,1.699302,1.708177,1.693802
2020-11-15 22:52:30.448,1.580423,1.711677,1.709552,1.693552
2020-11-15 22:52:30.465,1.580923,1.707302,1.713677,1.693927
2020-11-15 22:52:30.482,1.579673,1.705677,1.720928,1.694427
2020-11-15 22:52:30.499,1.580173,1.698552,1.715302,1.695802
2020-11-15 22:52:30.516,1.579173,1.697927,1.712927,1.694927
2020-11-15 22:52:30.533,1.581048,1.700052,1.703927,1.694677
2020-11-15 22:52:30.550,1.580548,1.703302,1.708552,1.693052
2020-11-15 22:52:30.567,1.581673,1.713177,1.711052,1.693052
2020-11-15 22:52:30.583,1.580048,1.706427,1.720553,1.693802
2020-11-15 22:52:30.600,1.580173,1.705177,1.716302,1.693427
2020-11-15 22:52:30.617,1.579548,1.696927,1.715552,1.695677
2020-11-15 22:52:30.634,1.579673,1.697927,1.709177,1.695052
2020-11-15 22:52:30.651,1.582173,1.700177,1.704177,1.694552
2020-11-15 22:52:30.668,1.581048,1.709427,1.709302,1.693427
2020-11-15 22:52:30.685,1.579298,1.708052,1.711927,1.692802
2020-11-15 22:52:30.702,1.579423,1.706302,1.721053,1.693677
2020-11-15 22:52:30.719,1.579923,1.702177,1.715677,1.695302
2020-11-15 22:52:30.736,1.579298,1.694052,1.714552,1.694552
2020-11-15 22:52:30.753,1.579173,1.699677,1.703552,1.694052
2020-11-15 22:52:30.772,1.582673,1.700427,1.706802,1.694427
2020-11-15 22:52:30.789,1.582298,1.705427,1.709552,1.693177
2020-11-15 22:52:30.806,1.579798,1.711052,1.712302,1.693427
2020-11-15 22:52:30.823,1.580048,1.706302,1.722303,1.692677
2020-11-15 22:52:30.839,1.581173,1.703052,1.715302,1.696052
2020-11-15 22:52:30.856,1.578798,1.694177,1.714427,1.695302
2020-11-15 22:52:30.873,1.580173,1.700052,1.705802,1.693927
2020-11-15 22:52:30.890,1.581798,1.702802,1.708302,1.693927
2020-11-15 22:52:30.907,1.581173,1.711677,1.708802,1.693552
2020-11-15 22:52:30.924,1.580298,1.707052,1.719552,1.693302
2020-11-15 22:52:30.941,1.580173,1.706427,1.717052,1.693927
2020-11-15 22:52:30.958,1.581298,1.699927,1.715427,1.695677
2020-11-15 22:52:30.975,1.580048,1.696552,1.711802,1.694677
2020-11-15 22:52:30.992,1.580923,1.699677,1.702427,1.694177
2020-11-15 22:52:31.009,1.579798,1.702052,1.708927,1.693302
2020-11-15 22:52:31.026,1.581673,1.710677,1.710927,1.694302
2020-11-15 22:52:31.043,1.580798,1.706927,1.719802,1.693677
2020-11-15 22:52:31.060,1.580298,1.703302,1.716302,1.694552
2020-11-15 22:52:31.077,1.578798,1.694052,1.715052,1.694802
2020-11-15 22:52:31.094,1.579923,1.699052,1.709927,1.694927
2020-11-15 22:52:31.111,1.581423,1.700177,1.703052,1.694677
2020-11-15 22:52:31.128,1.582173,1.708302,1.708427,1.692802
2020-11-15 22:52:31.145,1.580173,1.708302,1.713927,1.693677
2020-11-15 22:52:31.162,1.578673,1.706427,1.721928,1.693802
2020-11-15 22:52:31.179,1.579798,1.702427,1.715552,1.694552
2020-11-15 22:52:31.196,1.579673,1.693552,1.713427,1.694802
2020-11-15 22:52:31.213,1.580798,1.699302,1.703552,1.693552
2020-11-15 22:52:31.230,1.580298,1.699927,1.708177,1.693302
2020-11-15 22:52:31.247,1.581048,1.708927,1.709177,1.693802
2020-11-15 22:52:31.264,1.581173,1.706802,1.715427,1.693552
2020-11-15 22:52:31.281,1.579673,1.705927,1.718927,1.694052
2020-11-15 22:52:31.298,1.579048,1.696927,1.714802,1.696177
2020-11-15 22:52:31.315,1.580298,1.698552,1.711427,1.694802
2020-11-15 22:52:31.332,1.579798,1.699552,1.704927,1.694677
2020-11-15 22:52:31.349,1.581923,1.703677,1.709052,1.693177
2020-11-15 22:52:31.366,1.581298,1.712927,1.711677,1.693052
2020-11-15 22:52:31.383,1.580548,1.706552,1.721428,1.693552
2020-11-15 22:52:31.400,1.579173,1.704177,1.716302,1.693927
2020-11-15 22:52:31.417,1.579173,1.694677,1.715177,1.695302
2020-11-15 22:52:31.434,1.580048,1.697802,1.707802,1.695177
2020-11-15 22:52:31.451,1.583423,1.701177,1.706052,1.693552
2020-11-15 22:52:31.468,1.581798,1.711052,1.709177,1.692927
2020-11-15 22:52:31.485,1.581298,1.707677,1.711802,1.693552
2020-11-15 22:52:31.502,1.580298,1.706302,1.722053,1.693677
2020-11-15 22:52:31.519,1.579548,1.700927,1.715802,1.695302
2020-11-15 22:52:31.536,1.579923,1.694302,1.712302,1.694927
2020-11-15 22:52:31.553,1.581298,1.699927,1.702927,1.694302
2020-11-15 22:52:31.570,1.581673,1.702052,1.708677,1.693427
2020-11-15 22:52:31.587,1.581173,1.705677,1.709552,1.692802
2020-11-15 22:52:31.605,1.581673,1.709802,1.713177,1.693677
2020-11-15 22:52:31.622,1.579798,1.706302,1.723053,1.693677
2020-11-15 22:52:31.639,1.580798,1.703052,1.716052,1.694802
2020-11-15 22:52:31.656,1.580173,1.693302,1.713927,1.694302
2020-11-15 22:52:31.673,1.578798,1.698427,1.704302,1.694177
2020-11-15 22:52:31.690,1.582173,1.699302,1.707802,1.693802
2020-11-15 22:52:31.707,1.582423,1.712177,1.708927,1.693302
2020-11-15 22:52:31.724,1.581173,1.707302,1.713677,1.694177
2020-11-15 22:52:31.741,1.578798,1.705677,1.720803,1.694302
2020-11-15 22:52:31.758,1.578923,1.697927,1.715427,1.696177
2020-11-15 22:52:31.775,1.579048,1.698677,1.712802,1.695302
2020-11-15 22:52:31.792,1.580798,1.699802,1.703552,1.694427
2020-11-15 22:52:31.809,1.581423,1.703427,1.709427,1.693177
2020-11-15 22:52:31.826,1.581548,1.712552,1.711052,1.693927
2020-11-15 22:52:31.843,1.579673,1.706052,1.720678,1.693177
2020-11-15 22:52:31.860,1.581173,1.705052,1.716427,1.693677
2020-11-15 22:52:31.877,1.580548,1.695677,1.715302,1.695427
2020-11-15 22:52:31.894,1.579548,1.698302,1.708802,1.694927
2020-11-15 22:52:31.911,1.582923,1.699677,1.704677,1.694552
2020-11-15 22:52:31.928,1.580673,1.709677,1.709052,1.693177
2020-11-15 22:52:31.945,1.579923,1.707427,1.711677,1.693802
2020-11-15 22:52:31.962,1.579673,1.705927,1.721428,1.693802
2020-11-15 22:52:31.979,1.579548,1.702302,1.716177,1.695552
2020-11-15 22:52:31.996,1.579298,1.693427,1.714302,1.694927
2020-11-15 22:52:32.013,1.581298,1.699177,1.703927,1.694802
2020-11-15 22:52:32.030,1.583048,1.700927,1.708177,1.693427
2020-11-15 22:52:32.047,1.580673,1.710552,1.709302,1.692427
2020-11-15 22:52:32.064,1.581298,1.707302,1.716927,1.692552
2020-11-15 22:52:32.081,1.579423,1.705427,1.717552,1.692552
2020-11-15 22:52:32.098,1.579548,1.699927,1.715552,1.695802
2020-11-15 22:52:32.115,1.579423,1.698802,1.711802,1.694552
2020-11-15 22:52:32.132,1.581173,1.700552,1.702427,1.694427
2020-11-15 22:52:32.149,1.580673,1.704552,1.708177,1.693302
2020-11-15 22:52:32.166,1.581298,1.712052,1.708802,1.693802
2020-11-15 22:52:32.183,1.579923,1.706552,1.717677,1.693302
2020-11-15 22:52:32.200,1.579923,1.704052,1.716177,1.694552
2020-11-15 22:52:32.217,1.578673,1.694927,1.714927,1.695677
2020-11-15 22:52:32.234,1.579673,1.698552,1.706052,1.694427
2020-11-15 22:52:32.251,1.582548,1.699802,1.708052,1.694302
2020-11-15 22:52:32.268,1.580923,1.705677,1.709552,1.693177
2020-11-15 22:52:32.285,1.580423,1.709552,1.712427,1.692802
2020-11-15 22:52:32.302,1.579923,1.706052,1.722928,1.694302
2020-11-15 22:52:32.319,1.581423,1.699927,1.715802,1.695052
2020-11-15 22:52:32.336,1.579298,1.696052,1.713927,1.694677
2020-11-15 22:52:32.353,1.579423,1.699677,1.704677,1.694177
2020-11-15 22:52:32.370,1.583048,1.702677,1.707427,1.693427
2020-11-15 22:52:32.387,1.581048,1.711927,1.708802,1.693177
2020-11-15 22:52:32.404,1.580048,1.707427,1.719802,1.692927
2020-11-15 22:52:32.422,1.580048,1.706177,1.721803,1.693552
2020-11-15 22:52:32.439,1.579423,1.702302,1.715427,1.694802
2020-11-15 22:52:32.456,1.578423,1.693177,1.713552,1.694802
2020-11-15 22:52:32.473,1.579798,1.699177,1.705177,1.694427
2020-11-15 22:52:32.490,1.582673,1.700427,1.708052,1.693677
2020-11-15 22:52:32.507,1.581923,1.709052,1.709052,1.693177
2020-11-15 22:52:32.524,1.580423,1.706802,1.714927,1.693802
2020-11-15 22:52:32.541,1.580048,1.705677,1.719802,1.694177
2020-11-15 22:52:32.558,1.579173,1.696427,1.715427,1.695802
2020-11-15 22:52:32.575,1.578923,1.698677,1.711677,1.694802
2020-11-15 22:52:32.592,1.580548,1.699802,1.703427,1.694427
2020-11-15 22:52:32.609,1.580673,1.703927,1.708552,1.693177
2020-11-15 22:52:32.626,1.580298,1.713552,1.711552,1.693052
2020-11-15 22:52:32.643,1.579048,1.706427,1.721428,1.692802
2020-11-15 22:52:32.660,1.580048,1.704677,1.716052,1.694427
2020-11-15 22:52:32.677,1.579048,1.695427,1.715177,1.694927
2020-11-15 22:52:32.694,1.580423,1.698052,1.707552,1.693927
2020-11-15 22:52:32.711,1.582673,1.700927,1.706302,1.694177
2020-11-15 22:52:32.728,1.581173,1.705052,1.709177,1.693052
2020-11-15 22:52:32.745,1.580548,1.711177,1.711802,1.692552
2020-11-15 22:52:32.762,1.580798,1.706052,1.721553,1.692927
2020-11-15 22:52:32.779,1.579798,1.703677,1.716302,1.695427
2020-11-15 22:52:32.796,1.579923,1.694302,1.714802,1.695177
2020-11-15 22:52:32.813,1.579548,1.699552,1.705677,1.694427
2020-11-15 22:52:32.830,1.584048,1.701552,1.707427,1.693927
2020-11-15 22:52:32.847,1.581298,1.711427,1.708677,1.693177
2020-11-15 22:52:32.864,1.580548,1.707802,1.712552,1.693802
2020-11-15 22:52:32.881,1.581048,1.706427,1.721553,1.693802
2020-11-15 22:52:32.898,1.580173,1.700552,1.715802,1.696302
2020-11-15 22:52:32.915,1.579423,1.695302,1.711302,1.694927
2020-11-15 22:52:32.932,1.582173,1.698802,1.702677,1.694677
2020-11-15 22:52:32.949,1.581548,1.702302,1.708802,1.693427
2020-11-15 22:52:32.966,1.580923,1.711302,1.710302,1.693177
2020-11-15 22:52:32.983,1.579048,1.706802,1.719302,1.692552
2020-11-15 22:52:33.000,1.579798,1.705552,1.716302,1.695302
2020-11-15 22:52:33.017,1.580673,1.697927,1.714927,1.695552
2020-11-15 22:52:33.034,1.579798,1.698552,1.710552,1.694552
2020-11-15 22:52:33.051,1.582173,1.699927,1.701802,1.693802
2020-11-15 22:52:33.068,1.581798,1.707552,1.707927,1.693427
2020-11-15 22:52:33.085,1.581173,1.709052,1.709802,1.693552
2020-11-15 22:52:33.102,1.579798,1.707052,1.719552,1.693802
2020-11-15 22:52:33.119,1.580923,1.702927,1.715427,1.694927
2020-11-15 22:52:33.136,1.579173,1.693802,1.713927,1.694552
2020-11-15 22:52:33.153,1.581173,1.698802,1.704802,1.694302
2020-11-15 22:52:33.170,1.583423,1.700302,1.707677,1.693927
2020-11-15 22:52:33.187,1.580798,1.708302,1.709302,1.692552
2020-11-15 22:52:33.204,1.580298,1.706927,1.714677,1.693552
2020-11-15 22:52:33.221,1.580423,1.706302,1.720428,1.692927
2020-11-15 22:52:33.238,1.580298,1.701427,1.715802,1.695677
2020-11-15 22:52:33.256,1.579298,1.693302,1.715552,1.695177
2020-11-15 22:52:33.273,1.580173,1.699927,1.707177,1.694802
2020-11-15 22:52:33.290,1.583298,1.701427,1.706302,1.693927
2020-11-15 22:52:33.308,1.580923,1.710177,1.708427,1.692552
2020-11-15 22:52:33.324,1.580798,1.707302,1.712052,1.694427
2020-11-15 22:52:33.341,1.579548,1.706177,1.721178,1.694177
2020-11-15 22:52:33.358,1.578798,1.701677,1.715177,1.695052
2020-11-15 22:52:33.375,1.581048,1.693802,1.712052,1.694302
2020-11-15 22:52:33.392,1.581923,1.699427,1.703052,1.694427
2020-11-15 22:52:33.409,1.582048,1.700802,1.707927,1.693302
2020-11-15 22:52:33.426,1.581548,1.710552,1.709802,1.692302
2020-11-15 22:52:33.443,1.580423,1.706927,1.717552,1.694177
2020-11-15 22:52:33.460,1.580298,1.704427,1.716802,1.694677
2020-11-15 22:52:33.477,1.579173,1.695302,1.714802,1.695802
2020-11-15 22:52:33.494,1.578548,1.698677,1.711427,1.694552
2020-11-15 22:52:33.511,1.581048,1.699927,1.702052,1.694677
2020-11-15 22:52:33.528,1.581048,1.705802,1.708177,1.692927
2020-11-15 22:52:33.545,1.580923,1.711427,1.712677,1.693802
2020-11-15 22:52:33.562,1.580548,1.706427,1.722053,1.694052
2020-11-15 22:52:33.579,1.579048,1.703802,1.716677,1.695052
2020-11-15 22:52:33.596,1.580173,1.694552,1.713927,1.694802
2020-11-15 22:52:33.613,1.578798,1.698177,1.705427,1.694052
2020-11-15 22:52:33.630,1.583798,1.699177,1.708302,1.694302
2020-11-15 22:52:33.647,1.581048,1.711802,1.708927,1.692677
2020-11-15 22:52:33.664,1.580298,1.707552,1.713177,1.693677
2020-11-15 22:52:33.681,1.579673,1.706177,1.721928,1.694052
2020-11-15 22:52:33.698,1.579298,1.699927,1.715302,1.695927
2020-11-15 22:52:33.715,1.580048,1.696552,1.713427,1.694927
2020-11-15 22:52:33.732,1.579673,1.700052,1.702177,1.694677
2020-11-15 22:52:33.749,1.581423,1.702927,1.708677,1.693677
2020-11-15 22:52:33.766,1.581048,1.712427,1.710052,1.693552
2020-11-15 22:52:33.783,1.579298,1.707427,1.719802,1.693927
2020-11-15 22:52:33.800,1.580923,1.705427,1.716802,1.693552
2020-11-15 22:52:33.817,1.579673,1.698052,1.715677,1.695802
2020-11-15 22:52:33.834,1.580298,1.697802,1.709927,1.694177
2020-11-15 22:52:33.851,1.583048,1.700302,1.703302,1.694302
2020-11-15 22:52:33.868,1.581673,1.707927,1.708927,1.693052
2020-11-15 22:52:33.885,1.580298,1.708927,1.711052,1.693427
2020-11-15 22:52:33.902,1.579548,1.706552,1.719302,1.693802
2020-11-15 22:52:33.919,1.581048,1.702927,1.716427,1.695677
2020-11-15 22:52:33.936,1.578548,1.693677,1.713927,1.694552
2020-11-15 22:52:33.953,1.580798,1.698177,1.703677,1.695427
2020-11-15 22:52:33.970,1.583923,1.700552,1.707802,1.693927
2020-11-15 22:52:33.987,1.580798,1.709552,1.709302,1.691927
2020-11-15 22:52:34.004,1.580798,1.707177,1.715552,1.693302
2020-11-15 22:52:34.021,1.580548,1.706302,1.719427,1.693677
2020-11-15 22:52:34.038,1.579923,1.701177,1.715552,1.695552
2020-11-15 22:52:34.055,1.579798,1.692302,1.712552,1.694552
2020-11-15 22:52:34.073,1.579923,1.699427,1.707427,1.694302
2020-11-15 22:52:34.090,1.583423,1.701177,1.706802,1.694677
2020-11-15 22:52:34.107,1.580798,1.710177,1.708802,1.693302
2020-11-15 22:52:34.124,1.580423,1.707302,1.712427,1.693677
2020-11-15 22:52:34.141,1.580548,1.706052,1.721678,1.694177
2020-11-15 22:52:34.158,1.579423,1.700677,1.715677,1.695552
2020-11-15 22:52:34.175,1.577298,1.694927,1.712552,1.695052
2020-11-15 22:52:34.192,1.582173,1.699802,1.702552,1.694927
2020-11-15 22:52:34.209,1.581298,1.701552,1.708302,1.693677
2020-11-15 22:52:34.226,1.581048,1.711177,1.710052,1.693302
2020-11-15 22:52:34.243,1.580923,1.707552,1.718427,1.693052
2020-11-15 22:52:34.260,1.580048,1.705302,1.716177,1.693302
2020-11-15 22:52:34.277,1.579923,1.699052,1.715052,1.695302
2020-11-15 22:52:34.294,1.580548,1.695427,1.711927,1.695177
2020-11-15 22:52:34.311,1.581798,1.700052,1.702677,1.694302
2020-11-15 22:52:34.328,1.582048,1.706177,1.708552,1.693427
2020-11-15 22:52:34.345,1.581548,1.710677,1.709427,1.693802
2020-11-15 22:52:34.362,1.579923,1.706427,1.719177,1.693177
2020-11-15 22:52:34.379,1.581048,1.703177,1.715802,1.694802
2020-11-15 22:52:34.396,1.579548,1.694802,1.714927,1.695177
2020-11-15 22:52:34.413,1.581173,1.699052,1.705552,1.694802
2020-11-15 22:52:34.430,1.584048,1.700177,1.708302,1.694177
2020-11-15 22:52:34.447,1.581798,1.706177,1.708927,1.693427
2020-11-15 22:52:34.464,1.579923,1.708302,1.713677,1.692802
2020-11-15 22:52:34.481,1.580548,1.705802,1.721928,1.693677
2020-11-15 22:52:34.498,1.579923,1.702427,1.715427,1.695802
2020-11-15 22:52:34.515,1.579673,1.697302,1.714302,1.694927
2020-11-15 22:52:34.532,1.580798,1.699427,1.704302,1.694552
2020-11-15 22:52:34.549,1.583423,1.703052,1.707427,1.693802
2020-11-15 22:52:34.566,1.580798,1.712302,1.708802,1.693677
2020-11-15 22:52:34.583,1.581298,1.707177,1.713927,1.693802
2020-11-15 22:52:34.600,1.581798,1.705927,1.720177,1.694552
2020-11-15 22:52:34.617,1.580798,1.698302,1.715302,1.696177
2020-11-15 22:52:34.634,1.580298,1.698677,1.711052,1.694677
2020-11-15 22:52:34.651,1.583173,1.699302,1.703427,1.693927
2020-11-15 22:52:34.668,1.579423,1.703552,1.708552,1.692177
2020-11-15 22:52:34.685,1.581423,1.712177,1.710927,1.693552
2020-11-15 22:52:34.702,1.580673,1.706677,1.720803,1.693177
2020-11-15 22:52:34.719,1.580173,1.704802,1.716927,1.695052
2020-11-15 22:52:34.736,1.580298,1.694302,1.714927,1.694552
2020-11-15 22:52:34.753,1.580048,1.699302,1.708677,1.695177
2020-11-15 22:52:34.770,1.582548,1.700302,1.705177,1.694802
2020-11-15 22:52:34.787,1.582048,1.709927,1.707927,1.692427
2020-11-15 22:52:34.804,1.581798,1.707552,1.710927,1.693427
2020-11-15 22:52:34.821,1.579798,1.706177,1.719677,1.693677
2020-11-15 22:52:34.838,1.579923,1.701927,1.715177,1.695302
2020-11-15 22:52:34.855,1.579173,1.693052,1.712677,1.694427
2020-11-15 22:52:34.872,1.581548,1.699427,1.703552,1.694052
2020-11-15 22:52:34.889,1.581923,1.698927,1.707052,1.694552
2020-11-15 22:52:34.907,1.582298,1.705677,1.709427,1.692927
2020-11-15 22:52:34.924,1.580548,1.710552,1.712677,1.693427
2020-11-15 22:52:34.941,1.579048,1.705802,1.722178,1.693552
2020-11-15 22:52:34.958,1.579548,1.700802,1.715552,1.695677
2020-11-15 22:52:34.975,1.580173,1.694177,1.713927,1.693927
2020-11-15 22:52:34.992,1.580673,1.699802,1.704927,1.694552
2020-11-15 22:52:35.009,1.583173,1.702177,1.707552,1.693802
2020-11-15 22:52:35.026,1.580923,1.706427,1.708802,1.693052
2020-11-15 22:52:35.044,1.579798,1.707427,1.713177,1.693177
2020-11-15 22:52:35.061,1.579548,1.706302,1.722053,1.694052
2020-11-15 22:52:35.078,1.579923,1.699552,1.715427,1.695552
2020-11-15 22:52:35.095,1.580298,1.696177,1.714052,1.694427
2020-11-15 22:52:35.112,1.581298,1.699802,1.703802,1.694427
2020-11-15 22:52:35.129,1.581673,1.702427,1.707177,1.694052
2020-11-15 22:52:35.146,1.579673,1.711552,1.710677,1.692302
2020-11-15 22:52:35.163,1.579673,1.707177,1.719802,1.693677
2020-11-15 22:52:35.179,1.581298,1.706177,1.716427,1.693927
2020-11-15 22:52:35.196,1.580048,1.697927,1.715427,1.695302
2020-11-15 22:52:35.213,1.579923,1.697552,1.710802,1.694302
2020-11-15 22:52:35.230,1.580173,1.699677,1.702802,1.694427
2020-11-15 22:52:35.247,1.582423,1.707177,1.709052,1.692927
2020-11-15 22:52:35.264,1.581173,1.708677,1.709552,1.693302
2020-11-15 22:52:35.281,1.580423,1.706802,1.720052,1.694052
2020-11-15 22:52:35.298,1.580423,1.702802,1.716677,1.694552
2020-11-15 22:52:35.315,1.578673,1.693302,1.714552,1.694802
2020-11-15 22:52:35.332,1.579673,1.699552,1.704052,1.694552
2020-11-15 22:52:35.349,1.582673,1.700052,1.708302,1.693677
2020-11-15 22:52:35.366,1.580673,1.708802,1.709302,1.692927
2020-11-15 22:52:35.383,1.581298,1.707052,1.714552,1.692802
2020-11-15 22:52:35.400,1.578548,1.705927,1.720928,1.693177
2020-11-15 22:52:35.417,1.579173,1.701802,1.715927,1.696427
2020-11-15 22:52:35.434,1.580298,1.698802,1.713177,1.694677
2020-11-15 22:52:35.451,1.580798,1.700052,1.703427,1.694302
2020-11-15 22:52:35.468,1.580548,1.703677,1.707552,1.693802
2020-11-15 22:52:35.485,1.581548,1.712677,1.708427,1.693427
2020-11-15 22:52:35.502,1.582298,1.706427,1.720302,1.693677
2020-11-15 22:52:35.519,1.577548,1.705677,1.716552,1.694302
2020-11-15 22:52:35.536,1.579798,1.696177,1.714927,1.695802
2020-11-15 22:52:35.553,1.581298,1.699052,1.708677,1.694052
2020-11-15 22:52:35.570,1.583173,1.699302,1.705552,1.693552
2020-11-15 22:52:35.587,1.580173,1.703802,1.708677,1.693177
2020-11-15 22:52:35.604,1.579298,1.712177,1.711427,1.693177
2020-11-15 22:52:35.621,1.579798,1.706052,1.721178,1.693927
2020-11-15 22:52:35.638,1.580423,1.702052,1.716052,1.695802
2020-11-15 22:52:35.655,1.578423,1.692927,1.714802,1.694677
2020-11-15 22:52:35.672,1.580548,1.699802,1.706427,1.694677
2020-11-15 22:52:35.689,1.582548,1.701177,1.706302,1.694177
2020-11-15 22:52:35.706,1.579048,1.711552,1.709177,1.691427
2020-11-15 22:52:35.724,1.582173,1.711552,1.712177,1.693677
2020-11-15 22:52:35.741,1.579173,1.706302,1.722678,1.693677
2020-11-15 22:52:35.758,1.580173,1.704177,1.715677,1.694552
2020-11-15 22:52:35.775,1.579673,1.695177,1.715052,1.695427
2020-11-15 22:52:35.792,1.579923,1.697802,1.705177,1.694302
2020-11-15 22:52:35.809,1.583548,1.699677,1.707802,1.693802
2020-11-15 22:52:35.826,1.580923,1.711427,1.708302,1.693427
2020-11-15 22:52:35.843,1.580798,1.707927,1.713177,1.693177
2020-11-15 22:52:35.860,1.580173,1.705552,1.721803,1.693802
2020-11-15 22:52:35.877,1.579298,1.699802,1.715177,1.695677
2020-11-15 22:52:35.894,1.579423,1.696052,1.713552,1.694552
2020-11-15 22:52:35.911,1.579298,1.699677,1.704427,1.694802
2020-11-15 22:52:35.928,1.581048,1.702802,1.708552,1.693177
2020-11-15 22:52:35.945,1.580798,1.711427,1.710302,1.692927
2020-11-15 22:52:35.962,1.581048,1.706552,1.719802,1.693427
2020-11-15 22:52:35.979,1.579048,1.704927,1.716177,1.693302
2020-11-15 22:52:35.996,1.578673,1.697927,1.714302,1.694802
2020-11-15 22:52:36.013,1.580173,1.699302,1.710552,1.694552
2020-11-15 22:52:36.030,1.583298,1.700052,1.702427,1.694177
2020-11-15 22:52:36.047,1.581923,1.707052,1.708927,1.692927
2020-11-15 22:52:36.064,1.580173,1.708802,1.710302,1.693427
2020-11-15 22:52:36.081,1.580173,1.706802,1.719552,1.694052
2020-11-15 22:52:36.098,1.578923,1.703677,1.715302,1.695302
2020-11-15 22:52:36.115,1.579173,1.693677,1.713302,1.694677
2020-11-15 22:52:36.132,1.580673,1.699427,1.704427,1.694802
2020-11-15 22:52:36.149,1.582923,1.699677,1.707427,1.693552
2020-11-15 22:52:36.166,1.579048,1.708677,1.708927,1.692302
2020-11-15 22:52:36.183,1.578923,1.706802,1.714302,1.693427
2020-11-15 22:52:36.200,1.580298,1.706177,1.720428,1.693802
2020-11-15 22:52:36.217,1.578798,1.698302,1.715302,1.695052
2020-11-15 22:52:36.234,1.578923,1.698677,1.712427,1.694802
2020-11-15 22:52:36.251,1.579673,1.699802,1.703552,1.695177
2020-11-15 22:52:36.268,1.580173,1.703427,1.707677,1.693177
2020-11-15 22:52:36.285,1.580173,1.713052,1.708427,1.693677
2020-11-15 22:52:36.302,1.579548,1.706802,1.720177,1.693302
2020-11-15 22:52:36.319,1.578673,1.705302,1.716177,1.694052
2020-11-15 22:52:36.336,1.579673,1.696302,1.715802,1.695677
2020-11-15 22:52:36.353,1.578673,1.698927,1.709177,1.694302
2020-11-15 22:52:36.370,1.581798,1.699677,1.704302,1.693927
2020-11-15 22:52:36.386,1.580423,1.703427,1.708052,1.692677
2020-11-15 22:52:36.403,1.579423,1.707052,1.711552,1.694302
2020-11-15 22:52:36.420,1.579923,1.706302,1.721178,1.694177
2020-11-15 22:52:36.437,1.579048,1.701552,1.715927,1.695302
2020-11-15 22:52:36.454,1.578548,1.693802,1.714177,1.693927
2020-11-15 22:52:36.471,1.579298,1.699552,1.707052,1.694052
2020-11-15 22:52:36.488,1.581048,1.701177,1.707802,1.693427
2020-11-15 22:52:36.505,1.579673,1.710302,1.709552,1.692927
2020-11-15 22:52:36.522,1.579923,1.706552,1.715927,1.693802
2020-11-15 22:52:36.539,1.579798,1.705302,1.722303,1.692552
2020-11-15 22:52:36.558,1.578173,1.703552,1.716052,1.694302
2020-11-15 22:52:36.575,1.579048,1.694552,1.714177,1.694677
2020-11-15 22:52:36.592,1.579673,1.698177,1.705677,1.694427
2020-11-15 22:52:36.609,1.582798,1.701552,1.707677,1.693802
2020-11-15 22:52:36.625,1.581173,1.711552,1.709177,1.692927
2020-11-15 22:52:36.643,1.579048,1.707552,1.713052,1.693927
2020-11-15 22:52:36.660,1.578923,1.705552,1.721928,1.693427
2020-11-15 22:52:36.676,1.580048,1.699927,1.715552,1.695427
2020-11-15 22:52:36.693,1.578048,1.695427,1.711427,1.694927
2020-11-15 22:52:36.710,1.580423,1.699552,1.702802,1.694302
2020-11-15 22:52:36.727,1.582173,1.702427,1.708677,1.693302
2020-11-15 22:52:36.744,1.579548,1.711427,1.709552,1.692677
2020-11-15 22:52:36.761,1.580923,1.707052,1.719052,1.693052
2020-11-15 22:52:36.778,1.579173,1.705302,1.715677,1.693302
2020-11-15 22:52:36.795,1.578673,1.695427,1.715302,1.695427
2020-11-15 22:52:36.812,1.579173,1.698427,1.710552,1.694427
2020-11-15 22:52:36.829,1.582923,1.700677,1.701927,1.694177
2020-11-15 22:52:36.846,1.578298,1.706177,1.708302,1.692802
2020-11-15 22:52:36.863,1.581548,1.709177,1.709552,1.693427
2020-11-15 22:52:36.880,1.579548,1.706302,1.720177,1.693802
2020-11-15 22:52:36.897,1.579173,1.703052,1.715927,1.694802
2020-11-15 22:52:36.914,1.578548,1.693802,1.714427,1.694802
2020-11-15 22:52:36.931,1.581173,1.698802,1.704302,1.694552
2020-11-15 22:52:36.948,1.582798,1.699802,1.707552,1.694052
2020-11-15 22:52:36.965,1.579673,1.708177,1.709427,1.691677
2020-11-15 22:52:36.982,1.580798,1.707052,1.714052,1.693427
2020-11-15 22:52:36.999,1.579798,1.706177,1.720803,1.694177
2020-11-15 22:52:37.016,1.577298,1.698427,1.715552,1.694427
2020-11-15 22:52:37.033,1.579173,1.698802,1.713302,1.694927
2020-11-15 22:52:37.050,1.580798,1.699677,1.703677,1.694427
2020-11-15 22:52:37.067,1.580298,1.703552,1.707427,1.693052
2020-11-15 22:52:37.084,1.581423,1.712802,1.708927,1.693552
2020-11-15 22:52:37.101,1.579673,1.706427,1.714427,1.693802
2020-11-15 22:52:37.118,1.579298,1.705302,1.716802,1.693677
2020-11-15 22:52:37.135,1.578798,1.696427,1.715302,1.695677
2020-11-15 22:52:37.152,1.580548,1.699052,1.709427,1.694552
2020-11-15 22:52:37.169,1.579673,1.698927,1.704177,1.693677
2020-11-15 22:52:37.186,1.580048,1.702927,1.708802,1.692802
2020-11-15 22:52:37.203,1.579548,1.712927,1.711302,1.693552
2020-11-15 22:52:37.220,1.578298,1.706552,1.721178,1.693802
2020-11-15 22:52:37.237,1.578173,1.702802,1.716177,1.695677
2020-11-15 22:52:37.254,1.577048,1.693802,1.714802,1.695177
2020-11-15 22:52:37.271,1.577673,1.699677,1.708177,1.694427
2020-11-15 22:52:37.288,1.581173,1.700552,1.706177,1.693677
2020-11-15 22:52:37.305,1.580173,1.710302,1.708802,1.692302
2020-11-15 22:52:37.322,1.578798,1.707302,1.711927,1.693677
2020-11-15 22:52:37.339,1.580173,1.706177,1.721553,1.693552
2020-11-15 22:52:37.356,1.577923,1.701302,1.715427,1.693677
2020-11-15 22:52:37.375,1.577673,1.694802,1.715427,1.695427
2020-11-15 22:52:37.392,1.579173,1.698927,1.711302,1.694302
2020-11-15 22:52:37.409,1.580298,1.700177,1.702052,1.694552
2020-11-15 22:52:37.426,1.579173,1.706427,1.709177,1.692927
2020-11-15 22:52:37.443,1.579923,1.710802,1.712552,1.693552
2020-11-15 22:52:37.460,1.579173,1.706677,1.722178,1.693052
2020-11-15 22:52:37.477,1.578173,1.703802,1.715927,1.694552
2020-11-15 22:52:37.494,1.577548,1.694302,1.714177,1.694677
2020-11-15 22:52:37.511,1.578548,1.698677,1.705177,1.693552
2020-11-15 22:52:37.528,1.582798,1.699927,1.708177,1.693677
2020-11-15 22:52:37.545,1.580548,1.712302,1.709552,1.693302
2020-11-15 22:52:37.562,1.578798,1.706802,1.713302,1.693677
2020-11-15 22:52:37.579,1.579298,1.706052,1.721928,1.694177
2020-11-15 22:52:37.596,1.576548,1.699177,1.715677,1.695552
2020-11-15 22:52:37.613,1.578798,1.696802,1.712927,1.694927
2020-11-15 22:52:37.630,1.579298,1.699927,1.703802,1.694677
2020-11-15 22:52:37.647,1.580923,1.703427,1.707427,1.693677
2020-11-15 22:52:37.664,1.579298,1.712052,1.710302,1.693177
2020-11-15 22:52:37.681,1.579548,1.706927,1.720302,1.693802
2020-11-15 22:52:37.698,1.580423,1.705802,1.716802,1.693677
2020-11-15 22:52:37.715,1.578048,1.697927,1.715052,1.695677
2020-11-15 22:52:37.732,1.577298,1.697427,1.710802,1.693927
2020-11-15 22:52:37.749,1.582048,1.699427,1.702927,1.694052
2020-11-15 22:52:37.766,1.581673,1.702427,1.708802,1.693552
2020-11-15 22:52:37.783,1.579923,1.708552,1.710677,1.693427
2020-11-15 22:52:37.800,1.578298,1.706552,1.720302,1.693677
2020-11-15 22:52:37.817,1.578298,1.703552,1.716052,1.694927
2020-11-15 22:52:37.834,1.579548,1.693677,1.714427,1.695302
2020-11-15 22:52:37.851,1.577673,1.699427,1.708427,1.694302
2020-11-15 22:52:37.868,1.582173,1.700427,1.707552,1.694052
2020-11-15 22:52:37.885,1.580673,1.709927,1.709177,1.693052
2020-11-15 22:52:37.902,1.580548,1.707052,1.714927,1.693302
2020-11-15 22:52:37.919,1.577423,1.705927,1.720678,1.693302
2020-11-15 22:52:37.936,1.577423,1.701927,1.715677,1.695427
2020-11-15 22:52:37.953,1.579673,1.693177,1.713302,1.693927
2020-11-15 22:52:37.970,1.579923,1.698802,1.703677,1.694427
2020-11-15 22:52:37.987,1.581673,1.703802,1.708052,1.693802
2020-11-15 22:52:38.004,1.580548,1.713052,1.709052,1.693302
2020-11-15 22:52:38.021,1.579298,1.706927,1.716052,1.693927
2020-11-15 22:52:38.039,1.581298,1.705927,1.718927,1.693177
2020-11-15 22:52:38.055,1.576673,1.701427,1.716052,1.695552
2020-11-15 22:52:38.073,1.578173,1.694177,1.711677,1.694427
2020-11-15 22:52:38.090,1.580798,1.699552,1.703552,1.694052
2020-11-15 22:52:38.107,1.580673,1.700677,1.708677,1.692927
2020-11-15 22:52:38.124,1.580298,1.710552,1.709302,1.693677
2020-11-15 22:52:38.141,1.578923,1.706802,1.717802,1.693302
2020-11-15 22:52:38.158,1.579923,1.704177,1.717052,1.694427
2020-11-15 22:52:38.175,1.578298,1.694927,1.715552,1.696052
2020-11-15 22:52:38.192,1.579048,1.694302,1.714302,1.695052
2020-11-15 22:52:38.210,1.579548,1.699552,1.704802,1.694302
2020-11-15 22:52:38.227,1.582923,1.702552,1.706927,1.693302
2020-11-15 22:52:38.244,1.579173,1.711302,1.708927,1.693927
2020-11-15 22:52:38.261,1.578673,1.707427,1.719177,1.693427
2020-11-15 22:52:38.278,1.579423,1.705927,1.717052,1.694177
2020-11-15 22:52:38.295,1.578048,1.698802,1.715427,1.695177
2020-11-15 22:52:38.312,1.578923,1.696052,1.710802,1.694552
2020-11-15 22:52:38.329,1.580048,1.699927,1.702302,1.693802
2020-11-15 22:52:38.346,1.580298,1.703052,1.709177,1.692802
2020-11-15 22:52:38.363,1.579923,1.711677,1.710052,1.693177
2020-11-15 22:52:38.380,1.579673,1.706552,1.719677,1.693302
2020-11-15 22:52:38.397,1.578298,1.703802,1.716052,1.694927
2020-11-15 22:52:38.414,1.577923,1.694302,1.715052,1.695302
2020-11-15 22:52:38.431,1.578798,1.698927,1.709802,1.694552
2020-11-15 22:52:38.448,1.581673,1.699677,1.702552,1.693427
2020-11-15 22:52:38.465,1.580298,1.707927,1.707802,1.692927
2020-11-15 22:52:38.482,1.579423,1.708177,1.713052,1.693052
2020-11-15 22:52:38.499,1.578548,1.707302,1.721803,1.693052
2020-11-15 22:52:38.516,1.578298,1.703177,1.716052,1.694927
2020-11-15 22:52:38.533,1.578423,1.693177,1.713427,1.694302
2020-11-15 22:52:38.550,1.580423,1.698552,1.704427,1.694677
2020-11-15 22:52:38.567,1.582548,1.699927,1.707552,1.693802
2020-11-15 22:52:38.584,1.579298,1.709052,1.708802,1.693177
2020-11-15 22:52:38.601,1.580298,1.706927,1.714677,1.693802
2020-11-15 22:52:38.618,1.579173,1.705802,1.720302,1.693927
2020-11-15 22:52:38.635,1.578923,1.697302,1.715677,1.695052
2020-11-15 22:52:38.652,1.577923,1.698677,1.712552,1.694802
2020-11-15 22:52:38.669,1.580798,1.699302,1.703427,1.694302
2020-11-15 22:52:38.686,1.581673,1.703427,1.707177,1.693302
2020-11-15 22:52:38.703,1.578673,1.712927,1.711302,1.693302
2020-11-15 22:52:38.720,1.579548,1.706677,1.721178,1.693677
2020-11-15 22:52:38.737,1.579173,1.705177,1.716677,1.694052
2020-11-15 22:52:38.754,1.578548,1.696177,1.714927,1.694927
2020-11-15 22:52:38.771,1.578923,1.698552,1.708677,1.694302
2020-11-15 22:52:38.788,1.581173,1.699427,1.705302,1.694177
2020-11-15 22:52:38.805,1.580423,1.704052,1.708802,1.692927
2020-11-15 22:52:38.822,1.580548,1.706802,1.712052,1.693927
2020-11-15 22:52:38.839,1.579923,1.706302,1.720928,1.693927
2020-11-15 22:52:38.856,1.577173,1.702052,1.715677,1.695677
2020-11-15 22:52:38.873,1.579298,1.694052,1.715427,1.695052
2020-11-15 22:52:38.890,1.580048,1.699302,1.707302,1.694927
2020-11-15 22:52:38.907,1.580923,1.700802,1.707802,1.693927
2020-11-15 22:52:38.924,1.579798,1.709802,1.708927,1.692302
2020-11-15 22:52:38.940,1.579923,1.707427,1.716552,1.693927
2020-11-15 22:52:38.957,1.579673,1.705927,1.718177,1.693927
2020-11-15 22:52:38.975,1.578048,1.701302,1.715677,1.695052
2020-11-15 22:52:38.992,1.579923,1.693677,1.712052,1.694677
2020-11-15 22:52:39.009,1.580923,1.698802,1.703052,1.694302
2020-11-15 22:52:39.027,1.582048,1.699177,1.707677,1.693802
2020-11-15 22:52:39.044,1.581673,1.711802,1.709177,1.692927
2020-11-15 22:52:39.061,1.579298,1.707552,1.712427,1.693177
2020-11-15 22:52:39.078,1.578673,1.704802,1.723053,1.694302
2020-11-15 22:52:39.095,1.578298,1.699677,1.715177,1.695802
2020-11-15 22:52:39.112,1.578298,1.695677,1.713677,1.694677
2020-11-15 22:52:39.129,1.578048,1.699802,1.702427,1.694677
2020-11-15 22:52:39.146,1.582298,1.702802,1.708927,1.693177
2020-11-15 22:52:39.163,1.580548,1.712052,1.709927,1.692802
2020-11-15 22:52:39.180,1.580173,1.706802,1.719052,1.692802
2020-11-15 22:52:39.197,1.578798,1.705677,1.717302,1.693802
2020-11-15 22:52:39.214,1.578548,1.698177,1.715302,1.695177
2020-11-15 22:52:39.231,1.579923,1.698927,1.710677,1.694427
2020-11-15 22:52:39.248,1.581798,1.699802,1.702677,1.694552
2020-11-15 22:52:39.265,1.579798,1.706927,1.708802,1.693177
2020-11-15 22:52:39.282,1.579798,1.709552,1.710177,1.693302
2020-11-15 22:52:39.299,1.578798,1.706177,1.719427,1.693177
2020-11-15 22:52:39.316,1.578048,1.703177,1.716177,1.695427
2020-11-15 22:52:39.333,1.578423,1.694552,1.714052,1.694802
2020-11-15 22:52:39.350,1.579548,1.698677,1.705052,1.694552
2020-11-15 22:52:39.367,1.580923,1.699677,1.707677,1.693927
2020-11-15 22:52:39.384,1.578923,1.708052,1.709177,1.692677
2020-11-15 22:52:39.400,1.579673,1.707927,1.714302,1.693052
2020-11-15 22:52:39.417,1.578923,1.705302,1.721178,1.694302
2020-11-15 22:52:39.435,1.577298,1.698802,1.715677,1.696302
2020-11-15 22:52:39.451,1.579173,1.697552,1.713177,1.694802
2020-11-15 22:52:39.468,1.578798,1.699927,1.703802,1.694427
2020-11-15 22:52:39.486,1.582048,1.703052,1.707427,1.693677
2020-11-15 22:52:39.503,1.579298,1.713177,1.708677,1.693927
2020-11-15 22:52:39.520,1.578798,1.707677,1.714302,1.693552
2020-11-15 22:52:39.536,1.577923,1.706427,1.716302,1.693927
2020-11-15 22:52:39.553,1.579423,1.696927,1.715177,1.694927
2020-11-15 22:52:39.570,1.580048,1.698427,1.710302,1.694427
2020-11-15 22:52:39.587,1.582673,1.699552,1.704177,1.694552
2020-11-15 22:52:39.604,1.580048,1.703427,1.708927,1.692677
2020-11-15 22:52:39.622,1.579923,1.712677,1.710927,1.692802
2020-11-15 22:52:39.639,1.579798,1.706427,1.721178,1.693677
2020-11-15 22:52:39.656,1.577173,1.704677,1.716427,1.693677
2020-11-15 22:52:39.673,1.578798,1.695802,1.715177,1.695427
2020-11-15 22:52:39.690,1.579548,1.697677,1.708927,1.694302
2020-11-15 22:52:39.707,1.582798,1.698927,1.705052,1.693677
2020-11-15 22:52:39.724,1.579298,1.710677,1.708552,1.693052
2020-11-15 22:52:39.741,1.580298,1.707427,1.711552,1.693427
2020-11-15 22:52:39.758,1.580173,1.706177,1.721303,1.693927
2020-11-15 22:52:39.775,1.579173,1.701427,1.715177,1.695052
2020-11-15 22:52:39.792,1.579423,1.693427,1.714177,1.694927
2020-11-15 22:52:39.809,1.579173,1.699802,1.703302,1.694177
2020-11-15 22:52:39.826,1.583048,1.701052,1.708677,1.693802
2020-11-15 22:52:39.843,1.579798,1.705052,1.709552,1.692677
2020-11-15 22:52:39.861,1.579548,1.710677,1.711552,1.693302
2020-11-15 22:52:39.878,1.578798,1.705677,1.722178,1.693552
2020-11-15 22:52:39.895,1.579423,1.703927,1.716052,1.694177
2020-11-15 22:52:39.912,1.579673,1.693927,1.714427,1.694927
2020-11-15 22:52:39.929,1.579548,1.699802,1.705927,1.695177
2020-11-15 22:52:39.946,1.583298,1.702052,1.707052,1.693677
2020-11-15 22:52:39.963,1.579923,1.710927,1.708552,1.692177
2020-11-15 22:52:39.980,1.580298,1.707677,1.712427,1.693552
2020-11-15 22:52:39.997,1.577923,1.706552,1.721803,1.693927
2020-11-15 22:52:40.014,1.578798,1.700552,1.715427,1.695302
2020-11-15 22:52:40.031,1.578673,1.695302,1.711677,1.694177
2020-11-15 22:52:40.048,1.580298,1.698802,1.701927,1.694427
2020-11-15 22:52:40.065,1.580423,1.702427,1.708427,1.693052
2020-11-15 22:52:40.082,1.580423,1.711552,1.709802,1.692677
2020-11-15 22:52:40.099,1.579173,1.706177,1.718427,1.693177
2020-11-15 22:52:40.116,1.579798,1.705427,1.716552,1.694802
2020-11-15 22:52:40.133,1.578423,1.695052,1.715177,1.695427
2020-11-15 22:52:40.150,1.578673,1.699177,1.710177,1.694177
2020-11-15 22:52:40.167,1.582423,1.699802,1.701552,1.694427
2020-11-15 22:52:40.184,1.580673,1.707052,1.707927,1.693177
2020-11-15 22:52:40.201,1.580298,1.709302,1.709427,1.693177
2020-11-15 22:52:40.218,1.579173,1.706677,1.722678,1.693802
2020-11-15 22:52:40.235,1.579923,1.703177,1.715177,1.694677
2020-11-15 22:52:40.252,1.580173,1.693677,1.713552,1.695302
2020-11-15 22:52:40.269,1.580673,1.699427,1.704927,1.694302
2020-11-15 22:52:40.286,1.582173,1.700177,1.708052,1.692927
2020-11-15 22:52:40.303,1.580298,1.707802,1.708302,1.693927
2020-11-15 22:52:40.320,1.579673,1.706927,1.713677,1.693177
2020-11-15 22:52:40.336,1.579298,1.705552,1.720928,1.694302
2020-11-15 22:52:40.353,1.580548,1.698677,1.715302,1.695427
2020-11-15 22:52:40.370,1.578798,1.697677,1.712552,1.694427
2020-11-15 22:52:40.387,1.579173,1.699302,1.703927,1.694552
2020-11-15 22:52:40.404,1.582048,1.703052,1.709177,1.693427
2020-11-15 22:52:40.421,1.580923,1.712802,1.711552,1.692927
2020-11-15 22:52:40.438,1.579798,1.707052,1.720052,1.693552
2020-11-15 22:52:40.455,1.578173,1.705052,1.716052,1.694052
2020-11-15 22:52:40.472,1.579048,1.697427,1.715177,1.695552
2020-11-15 22:52:40.489,1.579548,1.697802,1.709427,1.693552
2020-11-15 22:52:40.506,1.582423,1.700302,1.704052,1.693552
2020-11-15 22:52:40.523,1.580048,1.708552,1.708677,1.692552
2020-11-15 22:52:40.540,1.579798,1.707427,1.710552,1.693177
2020-11-15 22:52:40.557,1.579798,1.706302,1.721178,1.693677
2020-11-15 22:52:40.574,1.579923,1.702677,1.715427,1.695302
2020-11-15 22:52:40.591,1.579298,1.693302,1.714552,1.694927
2020-11-15 22:52:40.608,1.580048,1.699302,1.703552,1.694552
2020-11-15 22:52:40.625,1.582048,1.700802,1.708302,1.693802
2020-11-15 22:52:40.642,1.580048,1.709552,1.709427,1.692177
2020-11-15 22:52:40.659,1.578798,1.706802,1.715427,1.692177
2020-11-15 22:52:40.677,1.578923,1.706302,1.721303,1.692677
2020-11-15 22:52:40.694,1.578298,1.703552,1.716052,1.693802
2020-11-15 22:52:40.711,1.579548,1.695052,1.714927,1.694677
2020-11-15 22:52:40.728,1.579923,1.699677,1.707552,1.694802
2020-11-15 22:52:40.745,1.583423,1.701052,1.706927,1.694302
2020-11-15 22:52:40.762,1.579923,1.710802,1.708677,1.693177
2020-11-15 22:52:40.779,1.581298,1.707927,1.711927,1.693302
2020-11-15 22:52:40.796,1.579798,1.706302,1.722053,1.693552
2020-11-15 22:52:40.813,1.579173,1.700802,1.715552,1.695552
2020-11-15 22:52:40.830,1.580048,1.694677,1.711802,1.694802
2020-11-15 22:52:40.847,1.580423,1.699052,1.702677,1.694052
2020-11-15 22:52:40.864,1.580673,1.701677,1.707552,1.693177
2020-11-15 22:52:40.881,1.581048,1.710427,1.709177,1.692302
2020-11-15 22:52:40.898,1.581423,1.707302,1.718052,1.693552
2020-11-15 22:52:40.915,1.578548,1.704052,1.716802,1.694427
2020-11-15 22:52:40.932,1.579048,1.694927,1.715052,1.695302
2020-11-15 22:52:40.949,1.578673,1.698177,1.711302,1.695302
2020-11-15 22:52:40.966,1.580798,1.699552,1.701677,1.693927
2020-11-15 22:52:40.983,1.581173,1.705302,1.707177,1.692677
2020-11-15 22:52:41.000,1.579548,1.710302,1.712802,1.693302
2020-11-15 22:52:41.017,1.579173,1.706552,1.722178,1.693302
2020-11-15 22:52:41.034,1.578798,1.703052,1.715677,1.694677
2020-11-15 22:52:41.051,1.579548,1.694427,1.714427,1.694927
2020-11-15 22:52:41.068,1.579548,1.698427,1.704802,1.694427
2020-11-15 22:52:41.085,1.583173,1.698927,1.707802,1.693927
2020-11-15 22:52:41.102,1.580923,1.711677,1.708427,1.693052
2020-11-15 22:52:41.119,1.580798,1.707552,1.712052,1.693052
2020-11-15 22:52:41.136,1.580423,1.705927,1.722178,1.693677
2020-11-15 22:52:41.153,1.578923,1.699177,1.715552,1.695677
2020-11-15 22:52:41.170,1.577673,1.695552,1.713427,1.695052
2020-11-15 22:52:41.187,1.580423,1.699927,1.704177,1.694677
2020-11-15 22:52:41.204,1.583173,1.703177,1.707177,1.693552
2020-11-15 22:52:41.221,1.580173,1.711927,1.709427,1.692927
2020-11-15 22:52:41.238,1.578798,1.706552,1.719177,1.693302
2020-11-15 22:52:41.255,1.580673,1.705302,1.716552,1.693302
2020-11-15 22:52:41.272,1.579798,1.698302,1.715927,1.695302
2020-11-15 22:52:41.289,1.580298,1.697552,1.710552,1.694302
2020-11-15 22:52:41.306,1.581923,1.700052,1.702302,1.694052
2020-11-15 22:52:41.323,1.581298,1.706927,1.708427,1.692802
2020-11-15 22:52:41.340,1.581298,1.709427,1.710177,1.693052
2020-11-15 22:52:41.357,1.580173,1.705552,1.719802,1.693677
2020-11-15 22:52:41.374,1.579798,1.702427,1.715302,1.694802
2020-11-15 22:52:41.391,1.578298,1.693927,1.713177,1.694677
2020-11-15 22:52:41.408,1.580298,1.699177,1.704302,1.693927
2020-11-15 22:52:41.425,1.583423,1.700052,1.707677,1.693677
2020-11-15 22:52:41.442,1.580423,1.707677,1.709177,1.692552
2020-11-15 22:52:41.459,1.580048,1.706802,1.714677,1.692927
2020-11-15 22:52:41.476,1.579923,1.705802,1.720928,1.694302
2020-11-15 22:52:41.493,1.579173,1.701677,1.716302,1.694802
2020-11-15 22:52:41.511,1.580048,1.693552,1.715052,1.694552
2020-11-15 22:52:41.528,1.578798,1.699302,1.707552,1.694552
2020-11-15 22:52:41.545,1.583048,1.700802,1.704802,1.694302
2020-11-15 22:52:41.562,1.580923,1.710177,1.708427,1.692427
2020-11-15 22:52:41.579,1.580798,1.707677,1.710552,1.693177
2020-11-15 22:52:41.596,1.579048,1.705552,1.719177,1.693802
2020-11-15 22:52:41.613,1.579548,1.702552,1.715427,1.695177
2020-11-15 22:52:41.630,1.579798,1.693427,1.713177,1.694677
2020-11-15 22:52:41.647,1.580548,1.698802,1.703177,1.694302
2020-11-15 22:52:41.664,1.581423,1.700552,1.707552,1.693302
2020-11-15 22:52:41.681,1.580923,1.709427,1.709052,1.692802
2020-11-15 22:52:41.698,1.579673,1.706552,1.716552,1.693552
2020-11-15 22:52:41.715,1.579673,1.704927,1.717677,1.693927
2020-11-15 22:52:41.732,1.578798,1.695802,1.714802,1.695927
2020-11-15 22:52:41.749,1.578798,1.698427,1.711552,1.694677
2020-11-15 22:52:41.766,1.580923,1.699677,1.702052,1.693802
2020-11-15 22:52:41.783,1.581048,1.704052,1.707552,1.692427
2020-11-15 22:52:41.800,1.581423,1.712552,1.712177,1.692802
2020-11-15 22:52:41.817,1.579798,1.706177,1.721928,1.692802
2020-11-15 22:52:41.834,1.579423,1.703927,1.715802,1.694052
2020-11-15 22:52:41.851,1.580298,1.694677,1.715177,1.695052
2020-11-15 22:52:41.868,1.579548,1.698177,1.707177,1.694302
2020-11-15 22:52:41.885,1.582673,1.698677,1.707302,1.693927
2020-11-15 22:52:41.902,1.581548,1.710427,1.708802,1.692552
2020-11-15 22:52:41.919,1.580423,1.710677,1.712302,1.693302
2020-11-15 22:52:41.936,1.579923,1.705677,1.722428,1.692677
2020-11-15 22:52:41.953,1.580048,1.703552,1.715927,1.693927
2020-11-15 22:52:41.970,1.580173,1.694302,1.714552,1.694427
2020-11-15 22:52:41.987,1.579673,1.699677,1.705052,1.694677
2020-11-15 22:52:42.004,1.582673,1.702052,1.708052,1.692802
2020-11-15 22:52:42.021,1.581048,1.711052,1.708677,1.692552
2020-11-15 22:52:42.038,1.580298,1.707427,1.712677,1.693302
2020-11-15 22:52:42.055,1.579673,1.706677,1.722428,1.693177
2020-11-15 22:52:42.072,1.578798,1.699552,1.715052,1.695677
2020-11-15 22:52:42.089,1.576548,1.695677,1.713302,1.694427
2020-11-15 22:52:42.106,1.580548,1.699552,1.704302,1.694427
2020-11-15 22:52:42.123,1.582673,1.702177,1.708302,1.693302
2020-11-15 22:52:42.140,1.580673,1.711927,1.708927,1.692052
2020-11-15 22:52:42.157,1.582423,1.707677,1.718552,1.692552
2020-11-15 22:52:42.174,1.579298,1.705927,1.716552,1.693177
2020-11-15 22:52:42.191,1.580798,1.698177,1.715302,1.694802
2020-11-15 22:52:42.208,1.580048,1.696302,1.710927,1.694802
2020-11-15 22:52:42.225,1.582673,1.699677,1.702177,1.694177
2020-11-15 22:52:42.242,1.581048,1.706677,1.708552,1.693427
2020-11-15 22:52:42.259,1.580173,1.707802,1.709927,1.693052
2020-11-15 22:52:42.277,1.580798,1.706802,1.720177,1.692552
2020-11-15 22:52:42.294,1.579798,1.705552,1.716552,1.693677
2020-11-15 22:52:42.311,1.579298,1.696677,1.715177,1.694052
2020-11-15 22:52:42.329,1.580298,1.692677,1.713052,1.694302
2020-11-15 22:52:42.346,1.582173,1.698677,1.704177,1.693927
2020-11-15 22:52:42.363,1.583423,1.703052,1.707427,1.693177
2020-11-15 22:52:42.380,1.580923,1.712677,1.709302,1.692927
2020-11-15 22:52:42.397,1.580298,1.706427,1.715302,1.693552
2020-11-15 22:52:42.414,1.579923,1.705177,1.718427,1.693802
2020-11-15 22:52:42.431,1.579548,1.696302,1.714802,1.695802
2020-11-15 22:52:42.448,1.578548,1.697927,1.711302,1.694302
2020-11-15 22:52:42.465,1.580423,1.699927,1.702177,1.694052
2020-11-15 22:52:42.482,1.581548,1.704177,1.709052,1.692427
2020-11-15 22:52:42.499,1.580298,1.712302,1.711302,1.692927
2020-11-15 22:52:42.516,1.580423,1.705927,1.721178,1.693052
2020-11-15 22:52:42.533,1.580173,1.704177,1.716177,1.693677
2020-11-15 22:52:42.550,1.579298,1.695302,1.715052,1.694802
2020-11-15 22:52:42.567,1.578173,1.697302,1.707802,1.693677
2020-11-15 22:52:42.584,1.583298,1.699052,1.706302,1.694177
2020-11-15 22:52:42.601,1.582173,1.710552,1.708802,1.692802
2020-11-15 22:52:42.618,1.580048,1.707052,1.712177,1.693427
2020-11-15 22:52:42.635,1.578673,1.705927,1.721803,1.694177
2020-11-15 22:52:42.652,1.578923,1.701427,1.714802,1.695427
2020-11-15 22:52:42.669,1.579548,1.693552,1.714552,1.695052
2020-11-15 22:52:42.686,1.580548,1.699552,1.702177,1.694052
2020-11-15 22:52:42.703,1.580298,1.701302,1.708052,1.693802
2020-11-15 22:52:42.720,1.581798,1.710802,1.708552,1.692177
2020-11-15 22:52:42.737,1.580548,1.706677,1.716677,1.693552
2020-11-15 22:52:42.754,1.579173,1.705802,1.717802,1.693552
2020-11-15 22:52:42.771,1.580423,1.700427,1.715427,1.694677
2020-11-15 22:52:42.788,1.579298,1.694427,1.711677,1.694552
2020-11-15 22:52:42.805,1.581923,1.700177,1.702927,1.694052
2020-11-15 22:52:42.822,1.581423,1.705302,1.708302,1.692802
2020-11-15 22:52:42.839,1.581298,1.711802,1.709677,1.693052
2020-11-15 22:52:42.856,1.579798,1.705927,1.718302,1.693052
2020-11-15 22:52:42.873,1.579798,1.703802,1.715802,1.694302
2020-11-15 22:52:42.890,1.579423,1.694802,1.714927,1.695052
2020-11-15 22:52:42.907,1.578423,1.699052,1.706427,1.693677
2020-11-15 22:52:42.924,1.582548,1.699552,1.707052,1.694177
2020-11-15 22:52:42.941,1.580798,1.705552,1.708802,1.692427
2020-11-15 22:52:42.958,1.581673,1.709552,1.712427,1.692552
2020-11-15 22:52:42.975,1.579548,1.706177,1.722303,1.693052
2020-11-15 22:52:42.992,1.579298,1.702927,1.715677,1.695302
2020-11-15 22:52:43.009,1.579673,1.695302,1.714302,1.694677
2020-11-15 22:52:43.026,1.579798,1.699552,1.704552,1.694052
2020-11-15 22:52:43.043,1.583048,1.702177,1.707677,1.693552
2020-11-15 22:52:43.060,1.581298,1.712052,1.708677,1.692927
2020-11-15 22:52:43.077,1.580173,1.707427,1.712302,1.693177
2020-11-15 22:52:43.094,1.577798,1.705802,1.721803,1.693552
2020-11-15 22:52:43.111,1.579798,1.699427,1.715302,1.695177
2020-11-15 22:52:43.128,1.579923,1.696427,1.711427,1.694052
2020-11-15 22:52:43.145,1.581298,1.697802,1.704302,1.694302
2020-11-15 22:52:43.163,1.584798,1.699802,1.707677,1.693552
2020-11-15 22:52:43.180,1.581173,1.707927,1.709052,1.692552
2020-11-15 22:52:43.197,1.581298,1.707177,1.713302,1.692927
2020-11-15 22:52:43.214,1.579673,1.705552,1.721053,1.693677
2020-11-15 22:52:43.231,1.580173,1.701427,1.715552,1.694052
2020-11-15 22:52:43.248,1.580798,1.692427,1.713052,1.694177
2020-11-15 22:52:43.265,1.580048,1.699927,1.704177,1.694427
2020-11-15 22:52:43.282,1.583548,1.702927,1.706927,1.693427
2020-11-15 22:52:43.299,1.581173,1.712052,1.708302,1.693427
2020-11-15 22:52:43.316,1.580173,1.706427,1.714177,1.693552
2020-11-15 22:52:43.333,1.579923,1.705427,1.718677,1.694052
2020-11-15 22:52:43.350,1.578798,1.697177,1.715052,1.695427
2020-11-15 22:52:43.367,1.579298,1.698427,1.710177,1.694427
2020-11-15 22:52:43.384,1.583423,1.699677,1.703427,1.693427
2020-11-15 22:52:43.401,1.580798,1.702552,1.708052,1.692552
2020-11-15 22:52:43.418,1.580798,1.711927,1.710802,1.692427
2020-11-15 22:52:43.435,1.579673,1.705802,1.720302,1.693552
2020-11-15 22:52:43.452,1.580548,1.702677,1.716552,1.694552
2020-11-15 22:52:43.469,1.580048,1.693302,1.714927,1.694427
2020-11-15 22:52:43.486,1.579548,1.699177,1.708677,1.694052
2020-11-15 22:52:43.503,1.582173,1.700427,1.703302,1.693802
2020-11-15 22:52:43.520,1.580423,1.709677,1.707927,1.692677
2020-11-15 22:52:43.537,1.580048,1.707177,1.710427,1.693177
2020-11-15 22:52:43.554,1.580798,1.706302,1.720052,1.693427
2020-11-15 22:52:43.571,1.580423,1.701927,1.715677,1.694302
2020-11-15 22:52:43.588,1.578798,1.692427,1.712802,1.693802
2020-11-15 22:52:43.605,1.581548,1.699052,1.703552,1.693677
2020-11-15 22:52:43.622,1.582798,1.700802,1.707927,1.692677
2020-11-15 22:52:43.639,1.581423,1.709552,1.709552,1.693677
2020-11-15 22:52:43.656,1.580048,1.705927,1.715427,1.693177
2020-11-15 22:52:43.673,1.580298,1.704927,1.717927,1.693677
2020-11-15 22:52:43.690,1.579673,1.695677,1.714927,1.696052
2020-11-15 22:52:43.707,1.580173,1.698302,1.711927,1.694302
2020-11-15 22:52:43.723,1.580548,1.699427,1.705302,1.694177
2020-11-15 22:52:43.740,1.580798,1.703677,1.709302,1.692677
2020-11-15 22:52:43.758,1.580673,1.712427,1.711677,1.692802
2020-11-15 22:52:43.774,1.579923,1.706052,1.720928,1.693052
2020-11-15 22:52:43.791,1.579673,1.704052,1.716177,1.693802
2020-11-15 22:52:43.808,1.579173,1.696052,1.714927,1.694302
2020-11-15 22:52:43.825,1.579548,1.699677,1.707927,1.694552
2020-11-15 22:52:43.842,1.582423,1.700427,1.705677,1.693677
2020-11-15 22:52:43.859,1.581548,1.710302,1.708802,1.692302
2020-11-15 22:52:43.876,1.580298,1.706927,1.711802,1.693177
2020-11-15 22:52:43.893,1.579923,1.705802,1.720928,1.693677
2020-11-15 22:52:43.910,1.579798,1.701302,1.715427,1.695302
2020-11-15 22:52:43.927,1.579798,1.693302,1.712427,1.695052
2020-11-15 22:52:43.944,1.580673,1.699177,1.702677,1.694052
2020-11-15 22:52:43.961,1.581923,1.700677,1.708427,1.693177
2020-11-15 22:52:43.980,1.582173,1.706177,1.709302,1.692302
2020-11-15 22:52:43.997,1.580423,1.710552,1.712302,1.692927
2020-11-15 22:52:44.014,1.580673,1.705802,1.722178,1.692552
2020-11-15 22:52:44.031,1.579173,1.703302,1.716177,1.693302
2020-11-15 22:52:44.048,1.578923,1.693552,1.714552,1.694802
2020-11-15 22:52:44.065,1.580048,1.699552,1.705302,1.694802
2020-11-15 22:52:44.082,1.584423,1.702427,1.707927,1.693177
2020-11-15 22:52:44.099,1.580548,1.710677,1.708052,1.692427
2020-11-15 22:52:44.116,1.580173,1.706677,1.712677,1.693302
2020-11-15 22:52:44.133,1.580798,1.706177,1.722303,1.693177
2020-11-15 22:52:44.150,1.579423,1.699677,1.715802,1.695302
2020-11-15 22:52:44.167,1.579048,1.695927,1.711052,1.694552
2020-11-15 22:52:44.183,1.582173,1.698677,1.701802,1.693552
2020-11-15 22:52:44.200,1.580548,1.703427,1.709052,1.693677
2020-11-15 22:52:44.218,1.580923,1.711052,1.710302,1.693302
2020-11-15 22:52:44.235,1.580173,1.707302,1.719302,1.692927
2020-11-15 22:52:44.252,1.580923,1.705802,1.716302,1.694052
2020-11-15 22:52:44.269,1.580423,1.699052,1.715052,1.695052
2020-11-15 22:52:44.286,1.580673,1.696552,1.711177,1.694302
2020-11-15 22:52:44.303,1.582798,1.699427,1.702177,1.694302
2020-11-15 22:52:44.320,1.580798,1.702302,1.708677,1.692677
2020-11-15 22:52:44.337,1.580673,1.709177,1.709802,1.693302
2020-11-15 22:52:44.354,1.580173,1.706427,1.720052,1.693677
2020-11-15 22:52:44.371,1.580173,1.703552,1.716552,1.694802
2020-11-15 22:52:44.388,1.580298,1.693802,1.714802,1.694677
2020-11-15 22:52:44.405,1.580298,1.698552,1.709677,1.694177
2020-11-15 22:52:44.422,1.582298,1.699927,1.702177,1.694302
2020-11-15 22:52:44.439,1.581548,1.708302,1.708677,1.692552
2020-11-15 22:52:44.456,1.579548,1.707802,1.713302,1.693177
2020-11-15 22:52:44.473,1.580548,1.705677,1.721803,1.692427
2020-11-15 22:52:44.490,1.578923,1.702552,1.715177,1.694302
2020-11-15 22:52:44.507,1.578548,1.693177,1.713802,1.694052
2020-11-15 22:52:44.524,1.580298,1.698427,1.704177,1.694677
2020-11-15 22:52:44.541,1.582548,1.702927,1.707427,1.693052
2020-11-15 22:52:44.558,1.580798,1.712552,1.709052,1.694052
2020-11-15 22:52:44.575,1.580673,1.706802,1.714677,1.693927
2020-11-15 22:52:44.592,1.578923,1.705552,1.719927,1.694052
2020-11-15 22:52:44.609,1.578923,1.697802,1.715177,1.695677
2020-11-15 22:52:44.626,1.579423,1.698302,1.712302,1.694802
2020-11-15 22:52:44.643,1.580673,1.700052,1.702927,1.694302
2020-11-15 22:52:44.660,1.580173,1.702802,1.708177,1.693302
2020-11-15 22:52:44.677,1.579798,1.711802,1.711177,1.693302
2020-11-15 22:52:44.694,1.580923,1.706052,1.720803,1.693177
2020-11-15 22:52:44.711,1.579798,1.704802,1.716552,1.693427
2020-11-15 22:52:44.728,1.579548,1.696052,1.714927,1.695052
2020-11-15 22:52:44.745,1.579673,1.699302,1.709177,1.694677
2020-11-15 22:52:44.762,1.582423,1.699677,1.703677,1.693802
2020-11-15 22:52:44.779,1.580923,1.708552,1.708427,1.693177
2020-11-15 22:52:44.796,1.580798,1.712177,1.708552,1.693052
2020-11-15 22:52:44.814,1.580423,1.707177,1.715552,1.693677
2020-11-15 22:52:44.831,1.580548,1.704802,1.717427,1.694177
2020-11-15 22:52:44.848,1.579173,1.696052,1.715552,1.696052
2020-11-15 22:52:44.865,1.579298,1.698427,1.708677,1.694427
2020-11-15 22:52:44.882,1.582923,1.699302,1.705302,1.694552
2020-11-15 22:52:44.899,1.581423,1.703802,1.708177,1.693302
2020-11-15 22:52:44.916,1.580798,1.712677,1.712052,1.692802
2020-11-15 22:52:44.933,1.579673,1.705927,1.721303,1.693427
2020-11-15 22:52:44.950,1.581173,1.701552,1.716052,1.694927
2020-11-15 22:52:44.967,1.580923,1.693177,1.714552,1.693927
2020-11-15 22:52:44.984,1.580798,1.699552,1.706927,1.693677
2020-11-15 22:52:45.001,1.583423,1.701177,1.705177,1.693927
2020-11-15 22:52:45.018,1.581673,1.710302,1.707677,1.692552
2020-11-15 22:52:45.035,1.581173,1.707302,1.715552,1.693552
2020-11-15 22:52:45.052,1.581173,1.705552,1.718927,1.692677
2020-11-15 22:52:45.069,1.580423,1.701177,1.714552,1.695052
2020-11-15 22:52:45.086,1.578673,1.693552,1.714927,1.695052
2020-11-15 22:52:45.103,1.580548,1.700302,1.705677,1.694427
2020-11-15 22:52:45.120,1.583798,1.701177,1.706302,1.693552
2020-11-15 22:52:45.137,1.581048,1.710052,1.708927,1.692427
2020-11-15 22:52:45.154,1.580048,1.707302,1.716927,1.693427
2020-11-15 22:52:45.171,1.580548,1.706177,1.717177,1.693552
2020-11-15 22:52:45.188,1.579548,1.700177,1.715177,1.695677
2020-11-15 22:52:45.205,1.579423,1.694302,1.711302,1.693802
2020-11-15 22:52:45.222,1.580548,1.698052,1.702802,1.694552
2020-11-15 22:52:45.239,1.581673,1.705052,1.708177,1.693177
2020-11-15 22:52:45.256,1.580423,1.711802,1.709302,1.692927
2020-11-15 22:52:45.273,1.580673,1.706302,1.718177,1.693677
2020-11-15 22:52:45.290,1.580548,1.704427,1.716302,1.694302
2020-11-15 22:52:45.307,1.579548,1.694677,1.714677,1.695677
2020-11-15 22:52:45.324,1.579798,1.698302,1.710552,1.694302
2020-11-15 22:52:45.341,1.584048,1.700552,1.707677,1.694052
2020-11-15 22:52:45.358,1.580798,1.705427,1.708427,1.692677
2020-11-15 22:52:45.375,1.581298,1.710802,1.712802,1.693427
2020-11-15 22:52:45.392,1.580798,1.705802,1.722428,1.693052
2020-11-15 22:52:45.409,1.579923,1.703052,1.715927,1.694177
2020-11-15 22:52:45.426,1.579798,1.693677,1.714052,1.694802
2020-11-15 22:52:45.443,1.580923,1.700052,1.705677,1.694677
2020-11-15 22:52:45.460,1.584298,1.701802,1.707302,1.693052
2020-11-15 22:52:45.477,1.581923,1.710927,1.708927,1.692427
2020-11-15 22:52:45.494,1.580673,1.706677,1.712427,1.693802
2020-11-15 22:52:45.511,1.579048,1.705927,1.721678,1.693802
2020-11-15 22:52:45.528,1.580798,1.699677,1.714802,1.695427
2020-11-15 22:52:45.545,1.579048,1.695302,1.711177,1.694427
2020-11-15 22:52:45.562,1.582423,1.699177,1.702552,1.693927
2020-11-15 22:52:45.579,1.581548,1.702052,1.708927,1.692427
2020-11-15 22:52:45.596,1.581298,1.710802,1.709302,1.692802
2020-11-15 22:52:45.613,1.580923,1.707302,1.719177,1.692927
2020-11-15 22:52:45.631,1.579548,1.706427,1.721803,1.693302
2020-11-15 22:52:45.648,1.579548,1.702802,1.715302,1.694177
2020-11-15 22:52:45.665,1.580048,1.693302,1.713927,1.694427
2020-11-15 22:52:45.682,1.581923,1.698927,1.703927,1.694552
2020-11-15 22:52:45.699,1.584548,1.702552,1.707302,1.693052
2020-11-15 22:52:45.716,1.581548,1.712052,1.708177,1.693802
2020-11-15 22:52:45.733,1.580673,1.706802,1.713552,1.693052
2020-11-15 22:52:45.750,1.580798,1.705427,1.721303,1.693677
2020-11-15 22:52:45.767,1.579923,1.698177,1.714677,1.695927
2020-11-15 22:52:45.784,1.579173,1.697927,1.710427,1.694677
2020-11-15 22:52:45.801,1.583548,1.699552,1.702302,1.693927
2020-11-15 22:52:45.818,1.582173,1.703302,1.708427,1.693177
2020-11-15 22:52:45.835,1.580923,1.711802,1.710427,1.692302
2020-11-15 22:52:45.852,1.580548,1.706302,1.719927,1.693177
2020-11-15 22:52:45.869,1.580173,1.704802,1.716052,1.694177
2020-11-15 22:52:45.886,1.579423,1.693302,1.715427,1.694927
2020-11-15 22:52:45.903,1.579798,1.699177,1.708927,1.694802
2020-11-15 22:52:45.920,1.582673,1.700177,1.703927,1.693552
2020-11-15 22:52:45.937,1.582173,1.708427,1.708052,1.692552
2020-11-15 22:52:45.954,1.581298,1.707427,1.710677,1.693677
2020-11-15 22:52:45.971,1.580673,1.706552,1.720302,1.693177
2020-11-15 22:52:45.988,1.579298,1.702302,1.715677,1.694802
2020-11-15 22:52:46.005,1.579798,1.692802,1.713302,1.694552
2020-11-15 22:52:46.022,1.580798,1.699302,1.704177,1.694302
2020-11-15 22:52:46.039,1.582673,1.700052,1.707052,1.693677
2020-11-15 22:52:46.056,1.581798,1.709677,1.709052,1.691802
2020-11-15 22:52:46.073,1.580048,1.707177,1.714802,1.693177
2020-11-15 22:52:46.090,1.580423,1.705552,1.720302,1.692927
2020-11-15 22:52:46.107,1.579673,1.701677,1.715552,1.695927
2020-11-15 22:52:46.124,1.580173,1.698552,1.712927,1.694052
2020-11-15 22:52:46.141,1.581548,1.699052,1.703177,1.694427
2020-11-15 22:52:46.158,1.582798,1.703302,1.707552,1.693052
2020-11-15 22:52:46.175,1.580548,1.713177,1.708427,1.693177
2020-11-15 22:52:46.192,1.581173,1.706302,1.715052,1.693302
2020-11-15 22:52:46.209,1.579798,1.705302,1.717677,1.693802
2020-11-15 22:52:46.226,1.580173,1.695802,1.715052,1.695427
2020-11-15 22:52:46.243,1.580548,1.697927,1.708677,1.694927
2020-11-15 22:52:46.260,1.583548,1.699427,1.704302,1.693302
2020-11-15 22:52:46.277,1.581048,1.703677,1.708802,1.692302
2020-11-15 22:52:46.294,1.582423,1.712302,1.711427,1.693177
2020-11-15 22:52:46.311,1.581298,1.705552,1.720302,1.692927
2020-11-15 22:52:46.328,1.580173,1.702677,1.716052,1.694677
2020-11-15 22:52:46.345,1.579423,1.692677,1.715177,1.694677
2020-11-15 22:52:46.362,1.580173,1.698677,1.708052,1.694677
2020-11-15 22:52:46.379,1.582173,1.700802,1.704802,1.693927
2020-11-15 22:52:46.396,1.580548,1.710052,1.708052,1.692677
2020-11-15 22:52:46.413,1.580173,1.707427,1.710302,1.692802
2020-11-15 22:52:46.430,1.580548,1.705427,1.720052,1.693302
2020-11-15 22:52:46.447,1.579423,1.702927,1.715427,1.693552
2020-11-15 22:52:46.465,1.578798,1.695427,1.714177,1.695427
2020-11-15 22:52:46.482,1.580423,1.698302,1.707052,1.694552
2020-11-15 22:52:46.499,1.582548,1.699177,1.706427,1.693677
2020-11-15 22:52:46.516,1.581173,1.704677,1.706927,1.692427
2020-11-15 22:52:46.534,1.580798,1.711302,1.712052,1.692677
2020-11-15 22:52:46.551,1.580423,1.705802,1.721303,1.693177
2020-11-15 22:52:46.568,1.579673,1.703427,1.715427,1.693427
2020-11-15 22:52:46.585,1.579798,1.694802,1.714927,1.694552
2020-11-15 22:52:46.602,1.580298,1.697802,1.706177,1.694177
2020-11-15 22:52:46.619,1.583798,1.698927,1.706802,1.693177
2020-11-15 22:52:46.635,1.581298,1.710677,1.708552,1.692302
2020-11-15 22:52:46.653,1.578923,1.706427,1.712552,1.693927
2020-11-15 22:52:46.669,1.579673,1.705177,1.721553,1.693427
2020-11-15 22:52:46.686,1.579798,1.699802,1.714802,1.695302
2020-11-15 22:52:46.703,1.578923,1.694802,1.713677,1.694302
2020-11-15 22:52:46.720,1.580923,1.699677,1.704177,1.694177
2020-11-15 22:52:46.737,1.582048,1.701052,1.708177,1.693427
2020-11-15 22:52:46.754,1.581423,1.710927,1.708927,1.692802
2020-11-15 22:52:46.771,1.579298,1.707052,1.718052,1.693302
2020-11-15 22:52:46.788,1.580173,1.705677,1.716052,1.693552
2020-11-15 22:52:46.805,1.580173,1.698427,1.714927,1.694927
2020-11-15 22:52:46.822,1.578798,1.694927,1.710552,1.693802
2020-11-15 22:52:46.839,1.582798,1.699052,1.702052,1.694427
2020-11-15 22:52:46.856,1.579798,1.705427,1.708552,1.692177
2020-11-15 22:52:46.873,1.580798,1.710677,1.709177,1.693052
2020-11-15 22:52:46.890,1.579048,1.706052,1.719052,1.693302
2020-11-15 22:52:46.907,1.579423,1.703552,1.715552,1.693677
2020-11-15 22:52:46.924,1.578548,1.694552,1.714302,1.694427
2020-11-15 22:52:46.941,1.578548,1.697677,1.705552,1.693927
2020-11-15 22:52:46.958,1.582923,1.699552,1.707552,1.693552
2020-11-15 22:52:46.975,1.581423,1.706302,1.708802,1.692302
2020-11-15 22:52:46.992,1.581423,1.709552,1.712427,1.692927
2020-11-15 22:52:47.009,1.580548,1.705552,1.722178,1.692927
2020-11-15 22:52:47.026,1.579673,1.702427,1.714927,1.693677
2020-11-15 22:52:47.043,1.580173,1.693427,1.713802,1.694427
2020-11-15 22:52:47.060,1.581423,1.698927,1.704927,1.694177
2020-11-15 22:52:47.077,1.583423,1.702302,1.707302,1.693552
2020-11-15 22:52:47.094,1.581173,1.710677,1.708427,1.693052
2020-11-15 22:52:47.111,1.580423,1.707052,1.712677,1.693802
2020-11-15 22:52:47.128,1.580673,1.705427,1.721053,1.693427
2020-11-15 22:52:47.145,1.580173,1.698302,1.714927,1.695302
2020-11-15 22:52:47.162,1.579298,1.697052,1.711302,1.693927
2020-11-15 22:52:47.179,1.581798,1.699427,1.702052,1.694052
2020-11-15 22:52:47.196,1.581298,1.702302,1.708552,1.692677
2020-11-15 22:52:47.213,1.580798,1.711802,1.709677,1.692302
2020-11-15 22:52:47.230,1.580173,1.706302,1.719677,1.692552
2020-11-15 22:52:47.247,1.578423,1.705302,1.716677,1.693302
2020-11-15 22:52:47.264,1.580173,1.696302,1.714177,1.695052
2020-11-15 22:52:47.282,1.579798,1.697552,1.713552,1.694427
2020-11-15 22:52:47.299,1.580298,1.699052,1.703677,1.694677
2020-11-15 22:52:47.317,1.582298,1.702802,1.707677,1.693302
2020-11-15 22:52:47.333,1.580048,1.711677,1.708427,1.693302
2020-11-15 22:52:47.350,1.580548,1.706802,1.714052,1.693177
2020-11-15 22:52:47.367,1.579673,1.705177,1.719427,1.693927
2020-11-15 22:52:47.384,1.578173,1.696927,1.715177,1.695677
2020-11-15 22:52:47.401,1.579548,1.698177,1.709677,1.694302
2020-11-15 22:52:47.419,1.582423,1.699927,1.703302,1.693927
2020-11-15 22:52:47.435,1.581548,1.702927,1.708177,1.693302
2020-11-15 22:52:47.452,1.580673,1.712177,1.710802,1.692677
2020-11-15 22:52:47.469,1.579048,1.705677,1.719802,1.692427
2020-11-15 22:52:47.486,1.579673,1.704552,1.716177,1.694927
2020-11-15 22:52:47.503,1.578923,1.695427,1.714802,1.694552
2020-11-15 22:52:47.520,1.579548,1.699052,1.708927,1.694302
2020-11-15 22:52:47.537,1.582548,1.699927,1.703427,1.692802
2020-11-15 22:52:47.554,1.579798,1.709177,1.707677,1.692927
2020-11-15 22:52:47.571,1.580673,1.707427,1.710427,1.693302
2020-11-15 22:52:47.588,1.579548,1.705302,1.720177,1.692802
2020-11-15 22:52:47.605,1.579048,1.702052,1.714802,1.694927
2020-11-15 22:52:47.622,1.580673,1.692552,1.712052,1.693927
2020-11-15 22:52:47.639,1.581173,1.698677,1.703052,1.693802
2020-11-15 22:52:47.656,1.582673,1.699802,1.707052,1.693427
2020-11-15 22:52:47.673,1.581048,1.709177,1.708552,1.691802
2020-11-15 22:52:47.690,1.580798,1.707302,1.715677,1.693177
2020-11-15 22:52:47.707,1.578673,1.705552,1.719802,1.693677
2020-11-15 22:52:47.724,1.579298,1.696052,1.714802,1.695552
2020-11-15 22:52:47.741,1.578923,1.698177,1.712302,1.694052
2020-11-15 22:52:47.758,1.581423,1.699677,1.703177,1.694052
2020-11-15 22:52:47.775,1.581548,1.703052,1.707302,1.692552
2020-11-15 22:52:47.792,1.581298,1.712552,1.711552,1.692927
2020-11-15 22:52:47.809,1.579923,1.706052,1.720678,1.693427
2020-11-15 22:52:47.826,1.579423,1.704427,1.716052,1.693552
2020-11-15 22:52:47.843,1.579673,1.695177,1.715052,1.694802
2020-11-15 22:52:47.860,1.580423,1.698302,1.707927,1.693552
2020-11-15 22:52:47.877,1.581673,1.699052,1.704802,1.693427
2020-11-15 22:52:47.894,1.581798,1.709052,1.707927,1.692427
2020-11-15 22:52:47.911,1.580423,1.707177,1.711427,1.693177
2020-11-15 22:52:47.928,1.579423,1.705677,1.720928,1.693177
2020-11-15 22:52:47.945,1.580173,1.701302,1.715177,1.695052
2020-11-15 22:52:47.962,1.579298,1.692552,1.714677,1.694677
2020-11-15 22:52:47.979,1.579298,1.699302,1.707052,1.694552
2020-11-15 22:52:47.996,1.581798,1.701052,1.707927,1.693302
2020-11-15 22:52:48.013,1.580298,1.709927,1.708927,1.692427
2020-11-15 22:52:48.030,1.580048,1.707177,1.715802,1.693177
2020-11-15 22:52:48.047,1.580048,1.705552,1.718802,1.693177
2020-11-15 22:52:48.064,1.579298,1.700802,1.714677,1.694802
2020-11-15 22:52:48.081,1.579798,1.692927,1.711802,1.694177
2020-11-15 22:52:48.098,1.582048,1.699177,1.706677,1.694177
2020-11-15 22:52:48.116,1.583298,1.701177,1.707177,1.693177
2020-11-15 22:52:48.133,1.581423,1.710927,1.708427,1.692177
2020-11-15 22:52:48.150,1.581173,1.706677,1.711927,1.693052
2020-11-15 22:52:48.167,1.580548,1.705802,1.721428,1.693802
2020-11-15 22:52:48.184,1.579423,1.700802,1.715427,1.695552
2020-11-15 22:52:48.201,1.579673,1.694427,1.713802,1.694302
2020-11-15 22:52:48.218,1.579298,1.699302,1.701927,1.694177
2020-11-15 22:52:48.235,1.581548,1.701927,1.707552,1.693677
2020-11-15 22:52:48.252,1.581923,1.711177,1.709302,1.692802
2020-11-15 22:52:48.269,1.579923,1.707177,1.717677,1.693552
2020-11-15 22:52:48.286,1.581048,1.705427,1.715677,1.692552
2020-11-15 22:52:48.303,1.580173,1.699677,1.715552,1.694802
2020-11-15 22:52:48.320,1.579548,1.695177,1.711802,1.694177
2020-11-15 22:52:48.337,1.581423,1.698677,1.702302,1.693802
2020-11-15 22:52:48.354,1.582048,1.702052,1.708302,1.692927
2020-11-15 22:52:48.371,1.581048,1.710302,1.709677,1.692177
2020-11-15 22:52:48.388,1.579798,1.706927,1.719052,1.693427
2020-11-15 22:52:48.405,1.581173,1.703677,1.716302,1.694552
2020-11-15 22:52:48.422,1.578798,1.694552,1.714677,1.695802
2020-11-15 22:52:48.439,1.579173,1.698302,1.710552,1.694052
2020-11-15 22:52:48.456,1.582923,1.700052,1.701427,1.693552
2020-11-15 22:52:48.473,1.581423,1.705927,1.708677,1.693427
2020-11-15 22:52:48.490,1.581048,1.710177,1.712302,1.692927
2020-11-15 22:52:48.507,1.580548,1.706927,1.722178,1.693677
2020-11-15 22:52:48.524,1.579423,1.702927,1.715677,1.694427
2020-11-15 22:52:48.541,1.579298,1.693927,1.713802,1.694177
2020-11-15 22:52:48.558,1.580798,1.697677,1.704927,1.693677
2020-11-15 22:52:48.575,1.582923,1.699052,1.707177,1.693552
2020-11-15 22:52:48.592,1.581173,1.711302,1.708927,1.692802
2020-11-15 22:52:48.609,1.580923,1.707052,1.712927,1.693052
2020-11-15 22:52:48.626,1.580298,1.705802,1.721428,1.693927
2020-11-15 22:52:48.643,1.578923,1.699052,1.715177,1.695177
2020-11-15 22:52:48.660,1.580173,1.696052,1.713302,1.694677
2020-11-15 22:52:48.677,1.579923,1.698927,1.704052,1.694677
2020-11-15 22:52:48.694,1.583423,1.702677,1.708427,1.693302
2020-11-15 22:52:48.711,1.581798,1.711927,1.709927,1.692552
2020-11-15 22:52:48.728,1.579423,1.706927,1.719302,1.693052
