Datetime,chan0,chan1,chan2,chan3
2020-11-15 23:02:15.292,1.583173,1.694552,1.714427,1.694177
2020-11-15 23:02:15.309,1.584548,1.699552,1.705052,1.694052
2020-11-15 23:02:15.326,1.587298,1.701927,1.707177,1.692552
2020-11-15 23:02:15.343,1.584423,1.711427,1.708052,1.692427
2020-11-15 23:02:15.360,1.584923,1.707552,1.713177,1.691552
2020-11-15 23:02:15.378,1.583673,1.706177,1.720052,1.692802
2020-11-15 23:02:15.395,1.583423,1.703177,1.715427,1.693802
2020-11-15 23:02:15.412,1.584173,1.693802,1.713802,1.693927
2020-11-15 23:02:15.429,1.584298,1.698427,1.704177,1.693427
2020-11-15 23:02:15.446,1.587423,1.700052,1.708052,1.692927
2020-11-15 23:02:15.463,1.585423,1.708302,1.709052,1.691302
2020-11-15 23:02:15.480,1.584298,1.706552,1.714927,1.692552
2020-11-15 23:02:15.497,1.583798,1.705677,1.719802,1.693052
2020-11-15 23:02:15.514,1.582798,1.697927,1.715052,1.695302
2020-11-15 23:02:15.531,1.582548,1.697927,1.711802,1.693302
2020-11-15 23:02:15.548,1.585298,1.700052,1.703177,1.693427
2020-11-15 23:02:15.565,1.586673,1.703802,1.707677,1.692302
2020-11-15 23:02:15.582,1.583923,1.713552,1.710677,1.692177
2020-11-15 23:02:15.599,1.584173,1.706802,1.721303,1.692802
2020-11-15 23:02:15.616,1.584173,1.704052,1.715802,1.693052
2020-11-15 23:02:15.633,1.582923,1.695552,1.715427,1.694427
2020-11-15 23:02:15.650,1.583548,1.698177,1.707802,1.693052
2020-11-15 23:02:15.667,1.587173,1.699302,1.705677,1.692052
2020-11-15 23:02:15.684,1.584798,1.710677,1.708552,1.691802
2020-11-15 23:02:15.701,1.584673,1.707427,1.712302,1.692677
2020-11-15 23:02:15.718,1.583048,1.706552,1.721553,1.692302
2020-11-15 23:02:15.735,1.583673,1.701177,1.715927,1.694177
2020-11-15 23:02:15.752,1.582798,1.693927,1.714177,1.694052
2020-11-15 23:02:15.769,1.583673,1.699302,1.702302,1.694302
2020-11-15 23:02:15.786,1.585423,1.701177,1.707677,1.692927
2020-11-15 23:02:15.803,1.585048,1.710802,1.708927,1.691552
2020-11-15 23:02:15.820,1.583298,1.706677,1.717677,1.691677
2020-11-15 23:02:15.837,1.583048,1.705052,1.716552,1.693427
2020-11-15 23:02:15.854,1.583423,1.695802,1.715052,1.694677
2020-11-15 23:02:15.871,1.583298,1.699052,1.710927,1.693552
2020-11-15 23:02:15.888,1.586048,1.699927,1.702052,1.693927
2020-11-15 23:02:15.905,1.585298,1.705427,1.708052,1.692552
2020-11-15 23:02:15.922,1.584798,1.710302,1.709427,1.692052
2020-11-15 23:02:15.939,1.583423,1.706302,1.721928,1.692677
2020-11-15 23:02:15.955,1.583798,1.702927,1.715552,1.693552
2020-11-15 23:02:15.972,1.582923,1.693927,1.714177,1.694177
2020-11-15 23:02:15.989,1.583798,1.698052,1.704552,1.693552
2020-11-15 23:02:16.006,1.587048,1.699427,1.708052,1.693052
2020-11-15 23:02:16.023,1.585423,1.711177,1.708427,1.692052
2020-11-15 23:02:16.040,1.584048,1.706927,1.713427,1.692427
2020-11-15 23:02:16.057,1.583423,1.706177,1.721178,1.693177
2020-11-15 23:02:16.074,1.583048,1.698552,1.714927,1.695177
2020-11-15 23:02:16.091,1.582923,1.696802,1.712802,1.693552
2020-11-15 23:02:16.108,1.584173,1.699427,1.703052,1.693677
2020-11-15 23:02:16.125,1.586548,1.702802,1.708427,1.692302
2020-11-15 23:02:16.142,1.584798,1.712427,1.710427,1.692677
2020-11-15 23:02:16.159,1.584048,1.706302,1.720052,1.692427
2020-11-15 23:02:16.176,1.583673,1.704802,1.715927,1.692427
2020-11-15 23:02:16.193,1.582798,1.700302,1.715052,1.694052
2020-11-15 23:02:16.211,1.584048,1.692552,1.712552,1.693552
2020-11-15 23:02:16.229,1.585048,1.698427,1.703302,1.694177
2020-11-15 23:02:16.245,1.585673,1.703302,1.708052,1.692302
2020-11-15 23:02:16.262,1.585173,1.712802,1.708802,1.692177
2020-11-15 23:02:16.279,1.583923,1.706052,1.716927,1.692177
2020-11-15 23:02:16.296,1.582798,1.704302,1.716177,1.693552
2020-11-15 23:02:16.313,1.582673,1.695427,1.714802,1.694552
2020-11-15 23:02:16.330,1.583798,1.698552,1.707177,1.693427
2020-11-15 23:02:16.347,1.587298,1.699302,1.706802,1.692927
2020-11-15 23:02:16.364,1.584298,1.704427,1.708802,1.691302
2020-11-15 23:02:16.381,1.584548,1.710802,1.711802,1.691927
2020-11-15 23:02:16.398,1.583923,1.705302,1.721928,1.693052
2020-11-15 23:02:16.415,1.582923,1.701177,1.715177,1.694802
2020-11-15 23:02:16.432,1.582423,1.694177,1.713927,1.693677
2020-11-15 23:02:16.449,1.584298,1.699677,1.704927,1.693927
2020-11-15 23:02:16.466,1.587048,1.702052,1.707427,1.692677
2020-11-15 23:02:16.483,1.584673,1.711427,1.708052,1.691927
2020-11-15 23:02:16.500,1.584173,1.707552,1.718552,1.692552
2020-11-15 23:02:16.517,1.583173,1.705802,1.715927,1.692802
2020-11-15 23:02:16.534,1.583048,1.699177,1.715427,1.693677
2020-11-15 23:02:16.551,1.583298,1.695427,1.709802,1.693052
2020-11-15 23:02:16.568,1.585673,1.698302,1.702427,1.693177
2020-11-15 23:02:16.585,1.585548,1.701927,1.708552,1.692052
2020-11-15 23:02:16.602,1.584548,1.710802,1.710552,1.691552
2020-11-15 23:02:16.619,1.583298,1.706802,1.719552,1.691302
2020-11-15 23:02:16.636,1.582798,1.705052,1.716552,1.692427
2020-11-15 23:02:16.653,1.582923,1.696927,1.714552,1.694302
2020-11-15 23:02:16.670,1.583048,1.698427,1.709177,1.693052
2020-11-15 23:02:16.687,1.586798,1.700052,1.704052,1.693302
2020-11-15 23:02:16.704,1.584673,1.708302,1.708802,1.691802
2020-11-15 23:02:16.721,1.584423,1.706927,1.710427,1.691677
2020-11-15 23:02:16.738,1.583548,1.706177,1.719677,1.692677
2020-11-15 23:02:16.755,1.583048,1.702302,1.715552,1.694302
2020-11-15 23:02:16.772,1.583423,1.693302,1.712802,1.693802
2020-11-15 23:02:16.789,1.585048,1.698802,1.703677,1.692927
2020-11-15 23:02:16.806,1.586173,1.700177,1.707552,1.692177
2020-11-15 23:02:16.823,1.585173,1.709677,1.709427,1.691177
2020-11-15 23:02:16.840,1.584173,1.706302,1.716177,1.692052
2020-11-15 23:02:16.857,1.583048,1.705427,1.718677,1.693302
2020-11-15 23:02:16.874,1.583298,1.695802,1.714802,1.695052
2020-11-15 23:02:16.891,1.582548,1.698427,1.711552,1.693552
2020-11-15 23:02:16.908,1.584548,1.699927,1.702552,1.693302
2020-11-15 23:02:16.925,1.584548,1.703677,1.708177,1.691927
2020-11-15 23:02:16.942,1.584173,1.712427,1.711302,1.692177
2020-11-15 23:02:16.959,1.582923,1.705802,1.721303,1.692927
2020-11-15 23:02:16.976,1.582923,1.703677,1.715927,1.692927
2020-11-15 23:02:16.993,1.583173,1.694302,1.714052,1.694302
2020-11-15 23:02:17.010,1.583673,1.697677,1.706802,1.693427
2020-11-15 23:02:17.028,1.586048,1.698927,1.702052,1.693927
2020-11-15 23:02:17.045,1.584798,1.705552,1.708302,1.692302
2020-11-15 23:02:17.062,1.584673,1.710177,1.709552,1.692802
2020-11-15 23:02:17.079,1.583798,1.706052,1.718427,1.692177
2020-11-15 23:02:17.096,1.582923,1.703802,1.715802,1.693427
2020-11-15 23:02:17.113,1.582798,1.694427,1.714302,1.694552
2020-11-15 23:02:17.130,1.583298,1.698427,1.709052,1.693802
2020-11-15 23:02:17.147,1.587548,1.699677,1.707802,1.693302
2020-11-15 23:02:17.164,1.584798,1.706927,1.709052,1.691927
2020-11-15 23:02:17.181,1.584548,1.707802,1.713427,1.692302
2020-11-15 23:02:17.198,1.583298,1.705677,1.721678,1.691552
2020-11-15 23:02:17.215,1.583673,1.702552,1.715427,1.693177
2020-11-15 23:02:17.232,1.583048,1.692677,1.712927,1.693927
2020-11-15 23:02:17.249,1.584423,1.698802,1.703677,1.693427
2020-11-15 23:02:17.266,1.586548,1.703302,1.707552,1.692427
2020-11-15 23:02:17.283,1.584548,1.712052,1.708677,1.692177
2020-11-15 23:02:17.300,1.583923,1.706427,1.715427,1.693177
2020-11-15 23:02:17.317,1.582923,1.705927,1.718927,1.693677
2020-11-15 23:02:17.334,1.582923,1.697177,1.714677,1.695302
2020-11-15 23:02:17.351,1.583298,1.698552,1.709427,1.693677
2020-11-15 23:02:17.368,1.586298,1.698927,1.703802,1.692927
2020-11-15 23:02:17.385,1.584173,1.703302,1.708427,1.692427
2020-11-15 23:02:17.402,1.585548,1.712052,1.711427,1.692302
2020-11-15 23:02:17.419,1.583923,1.705552,1.720302,1.691802
2020-11-15 23:02:17.436,1.583048,1.703677,1.716052,1.694677
2020-11-15 23:02:17.453,1.583423,1.693052,1.714552,1.693802
2020-11-15 23:02:17.470,1.583673,1.699802,1.707802,1.693802
2020-11-15 23:02:17.487,1.586298,1.700302,1.705802,1.693052
2020-11-15 23:02:17.504,1.584423,1.709677,1.708052,1.692177
2020-11-15 23:02:17.521,1.583548,1.707052,1.711677,1.693052
2020-11-15 23:02:17.538,1.582798,1.705927,1.718552,1.692802
2020-11-15 23:02:17.555,1.583048,1.700927,1.715052,1.694177
2020-11-15 23:02:17.572,1.583423,1.693927,1.711802,1.693552
2020-11-15 23:02:17.589,1.585423,1.699052,1.703052,1.692802
2020-11-15 23:02:17.606,1.585048,1.700552,1.707927,1.692302
2020-11-15 23:02:17.623,1.584673,1.710052,1.709927,1.692302
2020-11-15 23:02:17.640,1.583548,1.706177,1.718177,1.692552
2020-11-15 23:02:17.657,1.583298,1.703677,1.716177,1.693302
2020-11-15 23:02:17.673,1.582798,1.694552,1.714427,1.694427
2020-11-15 23:02:17.690,1.583048,1.698802,1.710427,1.693677
2020-11-15 23:02:17.707,1.586173,1.699552,1.701302,1.693177
2020-11-15 23:02:17.724,1.584798,1.705427,1.708052,1.692052
2020-11-15 23:02:17.741,1.584048,1.710052,1.712802,1.692802
2020-11-15 23:02:17.758,1.584048,1.706427,1.722428,1.692677
2020-11-15 23:02:17.775,1.583423,1.703177,1.715552,1.693177
2020-11-15 23:02:17.792,1.583548,1.693802,1.713927,1.694052
2020-11-15 23:02:17.809,1.584548,1.698302,1.704802,1.692927
2020-11-15 23:02:17.826,1.587673,1.699052,1.707427,1.692427
2020-11-15 23:02:17.843,1.584423,1.706927,1.708552,1.692052
2020-11-15 23:02:17.862,1.585173,1.707927,1.710302,1.692927
2020-11-15 23:02:17.879,1.583173,1.706052,1.720302,1.693302
2020-11-15 23:02:17.896,1.582798,1.702802,1.716177,1.694302
2020-11-15 23:02:17.913,1.582923,1.693427,1.714552,1.693677
2020-11-15 23:02:17.930,1.582798,1.699052,1.704427,1.693427
2020-11-15 23:02:17.947,1.586798,1.700177,1.707302,1.692927
2020-11-15 23:02:17.963,1.585048,1.709177,1.708427,1.691302
2020-11-15 23:02:17.981,1.584298,1.707302,1.715677,1.692177
2020-11-15 23:02:17.998,1.583173,1.705802,1.719302,1.692927
2020-11-15 23:02:18.015,1.583423,1.701927,1.715427,1.694302
2020-11-15 23:02:18.031,1.582548,1.692052,1.712052,1.693552
2020-11-15 23:02:18.049,1.585423,1.698802,1.703677,1.693302
2020-11-15 23:02:18.066,1.586548,1.702802,1.707427,1.692302
2020-11-15 23:02:18.082,1.584673,1.712552,1.708802,1.691677
2020-11-15 23:02:18.099,1.583798,1.706427,1.716427,1.692427
2020-11-15 23:02:18.116,1.583298,1.704552,1.716552,1.693052
2020-11-15 23:02:18.133,1.582673,1.694927,1.714427,1.695177
2020-11-15 23:02:18.150,1.582548,1.698552,1.706927,1.694302
2020-11-15 23:02:18.167,1.587548,1.700177,1.706052,1.692927
2020-11-15 23:02:18.184,1.584923,1.704677,1.708302,1.691927
2020-11-15 23:02:18.201,1.585048,1.711802,1.712302,1.692302
2020-11-15 23:02:18.218,1.583423,1.705927,1.721178,1.691552
2020-11-15 23:02:18.235,1.583548,1.703177,1.715552,1.695052
2020-11-15 23:02:18.252,1.583673,1.693552,1.714302,1.693802
2020-11-15 23:02:18.269,1.583923,1.698927,1.705302,1.693677
2020-11-15 23:02:18.286,1.587298,1.701802,1.707302,1.692427
2020-11-15 23:02:18.303,1.584048,1.710677,1.708802,1.691677
2020-11-15 23:02:18.320,1.584923,1.707052,1.712677,1.692427
2020-11-15 23:02:18.337,1.583298,1.705302,1.721553,1.692552
2020-11-15 23:02:18.354,1.583298,1.699552,1.715302,1.694302
2020-11-15 23:02:18.371,1.582798,1.695302,1.711302,1.693802
2020-11-15 23:02:18.388,1.586298,1.698802,1.701927,1.693677
2020-11-15 23:02:18.405,1.585423,1.701927,1.709177,1.692427
2020-11-15 23:02:18.422,1.584548,1.711802,1.709927,1.691552
2020-11-15 23:02:18.439,1.583048,1.706052,1.719427,1.692552
2020-11-15 23:02:18.456,1.583798,1.703177,1.715802,1.693802
2020-11-15 23:02:18.473,1.583923,1.693802,1.714177,1.694677
2020-11-15 23:02:18.490,1.582173,1.698177,1.709177,1.692052
2020-11-15 23:02:18.507,1.586298,1.700302,1.703302,1.693802
2020-11-15 23:02:18.524,1.585173,1.707677,1.708427,1.691677
2020-11-15 23:02:18.541,1.584923,1.707677,1.710302,1.692302
2020-11-15 23:02:18.558,1.583923,1.705927,1.719427,1.692802
2020-11-15 23:02:18.575,1.582798,1.702177,1.715552,1.694302
2020-11-15 23:02:18.592,1.583048,1.693552,1.713052,1.693302
2020-11-15 23:02:18.609,1.584048,1.698552,1.704052,1.693802
2020-11-15 23:02:18.626,1.587298,1.700802,1.707802,1.692802
2020-11-15 23:02:18.643,1.584173,1.709302,1.708927,1.690677
2020-11-15 23:02:18.660,1.583673,1.706052,1.715052,1.692677
2020-11-15 23:02:18.678,1.583673,1.705177,1.720928,1.693052
2020-11-15 23:02:18.695,1.583048,1.701552,1.715427,1.694677
2020-11-15 23:02:18.712,1.583423,1.693052,1.714802,1.694302
2020-11-15 23:02:18.729,1.583423,1.699552,1.706677,1.693552
2020-11-15 23:02:18.746,1.586548,1.701427,1.706302,1.692802
2020-11-15 23:02:18.763,1.584048,1.710802,1.708052,1.691802
2020-11-15 23:02:18.780,1.583673,1.706677,1.717552,1.692802
2020-11-15 23:02:18.797,1.583798,1.705302,1.717177,1.692927
2020-11-15 23:02:18.814,1.583298,1.700552,1.715427,1.694427
2020-11-15 23:02:18.831,1.582798,1.694802,1.711677,1.693052
2020-11-15 23:02:18.848,1.586048,1.698552,1.702552,1.692302
2020-11-15 23:02:18.865,1.585048,1.701052,1.708177,1.692052
2020-11-15 23:02:18.882,1.584423,1.710927,1.709802,1.692677
2020-11-15 23:02:18.899,1.584048,1.706802,1.719052,1.692052
2020-11-15 23:02:18.917,1.584048,1.705552,1.716052,1.692677
2020-11-15 23:02:18.934,1.583298,1.697552,1.715302,1.694177
2020-11-15 23:02:18.951,1.583673,1.698552,1.710302,1.694802
2020-11-15 23:02:18.968,1.586048,1.699802,1.701802,1.693052
2020-11-15 23:02:18.985,1.584673,1.706802,1.708302,1.692177
2020-11-15 23:02:19.002,1.584173,1.709302,1.711052,1.692052
2020-11-15 23:02:19.019,1.582923,1.706177,1.719552,1.693177
2020-11-15 23:02:19.036,1.583173,1.702677,1.715552,1.694052
2020-11-15 23:02:19.053,1.583298,1.694052,1.713927,1.693677
2020-11-15 23:02:19.069,1.585173,1.698427,1.703927,1.693302
2020-11-15 23:02:19.086,1.587298,1.699302,1.707802,1.693177
2020-11-15 23:02:19.103,1.584423,1.708677,1.708802,1.691677
2020-11-15 23:02:19.120,1.584423,1.707177,1.714677,1.692052
2020-11-15 23:02:19.137,1.582673,1.705552,1.720928,1.692302
2020-11-15 23:02:19.155,1.583673,1.701677,1.714802,1.694677
2020-11-15 23:02:19.171,1.582673,1.698927,1.712927,1.693927
2020-11-15 23:02:19.188,1.584548,1.699677,1.703802,1.693427
2020-11-15 23:02:19.205,1.585798,1.703552,1.708177,1.692427
2020-11-15 23:02:19.222,1.584673,1.712177,1.708677,1.692302
2020-11-15 23:02:19.239,1.583548,1.706052,1.715927,1.692927
2020-11-15 23:02:19.256,1.583048,1.705177,1.716177,1.693052
2020-11-15 23:02:19.273,1.583423,1.696052,1.715427,1.695052
2020-11-15 23:02:19.290,1.583423,1.698427,1.707177,1.693052
2020-11-15 23:02:19.307,1.586423,1.699177,1.705927,1.692927
2020-11-15 23:02:19.324,1.585298,1.703927,1.708927,1.691427
2020-11-15 23:02:19.341,1.584423,1.712177,1.712177,1.691802
2020-11-15 23:02:19.358,1.583548,1.705802,1.721303,1.692927
2020-11-15 23:02:19.375,1.583048,1.701427,1.715677,1.694427
2020-11-15 23:02:19.392,1.582798,1.693427,1.714177,1.693677
2020-11-15 23:02:19.409,1.583298,1.698802,1.705927,1.693427
2020-11-15 23:02:19.426,1.587298,1.701177,1.706677,1.692552
2020-11-15 23:02:19.443,1.585048,1.710677,1.708927,1.691802
2020-11-15 23:02:19.460,1.584048,1.706927,1.717802,1.692552
2020-11-15 23:02:19.477,1.583673,1.705677,1.715927,1.692927
2020-11-15 23:02:19.494,1.582923,1.702177,1.715177,1.693552
2020-11-15 23:02:19.512,1.583173,1.694552,1.714427,1.694302
2020-11-15 23:02:19.529,1.583673,1.697927,1.704927,1.694177
2020-11-15 23:02:19.546,1.587548,1.702052,1.707427,1.692302
2020-11-15 23:02:19.563,1.585048,1.711552,1.708927,1.692177
2020-11-15 23:02:19.580,1.583923,1.707552,1.713052,1.692927
2020-11-15 23:02:19.597,1.583048,1.705677,1.720803,1.693052
2020-11-15 23:02:19.614,1.583173,1.698427,1.714802,1.695177
2020-11-15 23:02:19.631,1.582548,1.697052,1.710177,1.693677
2020-11-15 23:02:19.648,1.586798,1.698802,1.702677,1.693677
2020-11-15 23:02:19.665,1.584673,1.702802,1.708927,1.692052
2020-11-15 23:02:19.682,1.584048,1.711177,1.709927,1.692927
2020-11-15 23:02:19.699,1.584048,1.706677,1.719927,1.692302
2020-11-15 23:02:19.716,1.582923,1.705052,1.716802,1.692302
2020-11-15 23:02:19.733,1.583423,1.695302,1.715177,1.694427
2020-11-15 23:02:19.750,1.583673,1.699052,1.708927,1.693802
2020-11-15 23:02:19.767,1.586298,1.699552,1.704177,1.693427
2020-11-15 23:02:19.784,1.585423,1.709052,1.708552,1.691677
2020-11-15 23:02:19.801,1.584798,1.707802,1.711302,1.692677
2020-11-15 23:02:19.818,1.583423,1.706177,1.719677,1.693177
2020-11-15 23:02:19.835,1.582048,1.701802,1.715177,1.694177
2020-11-15 23:02:19.852,1.583173,1.693177,1.712552,1.693552
2020-11-15 23:02:19.869,1.584423,1.698927,1.703427,1.693802
2020-11-15 23:02:19.886,1.586298,1.700177,1.707177,1.692302
2020-11-15 23:02:19.903,1.584798,1.709677,1.709552,1.692552
2020-11-15 23:02:19.920,1.583673,1.706427,1.716802,1.692677
2020-11-15 23:02:19.937,1.582923,1.704802,1.717677,1.692927
2020-11-15 23:02:19.954,1.583173,1.695552,1.714927,1.694677
2020-11-15 23:02:19.971,1.582798,1.699052,1.711552,1.694177
2020-11-15 23:02:19.988,1.585673,1.700052,1.701802,1.693052
2020-11-15 23:02:20.005,1.584173,1.704552,1.708802,1.692177
2020-11-15 23:02:20.022,1.584548,1.712052,1.712052,1.692302
2020-11-15 23:02:20.039,1.584423,1.706427,1.721803,1.692802
2020-11-15 23:02:20.056,1.583048,1.704427,1.715302,1.693177
2020-11-15 23:02:20.073,1.583173,1.694802,1.714052,1.694177
2020-11-15 23:02:20.090,1.583798,1.698427,1.705802,1.693302
2020-11-15 23:02:20.107,1.587423,1.699302,1.707427,1.692552
2020-11-15 23:02:20.124,1.584548,1.710677,1.708927,1.692427
2020-11-15 23:02:20.141,1.584298,1.707427,1.713427,1.692802
2020-11-15 23:02:20.158,1.583423,1.705802,1.721928,1.692677
2020-11-15 23:02:20.175,1.583048,1.699927,1.715427,1.694552
2020-11-15 23:02:20.192,1.582923,1.696052,1.713177,1.693927
2020-11-15 23:02:20.209,1.583173,1.699052,1.702927,1.693427
2020-11-15 23:02:20.225,1.584673,1.702802,1.708552,1.692427
2020-11-15 23:02:20.242,1.584673,1.711052,1.710052,1.691802
2020-11-15 23:02:20.259,1.584548,1.706927,1.719177,1.692802
2020-11-15 23:02:20.276,1.583673,1.705177,1.716427,1.692427
2020-11-15 23:02:20.293,1.583798,1.697427,1.715177,1.694302
2020-11-15 23:02:20.310,1.583548,1.698552,1.710052,1.693177
2020-11-15 23:02:20.328,1.584173,1.699302,1.703927,1.694177
2020-11-15 23:02:20.346,1.586173,1.703052,1.708302,1.692677
2020-11-15 23:02:20.363,1.584673,1.713302,1.709302,1.692802
2020-11-15 23:02:20.380,1.583923,1.706677,1.715177,1.693052
2020-11-15 23:02:20.396,1.583048,1.705302,1.716052,1.693177
2020-11-15 23:02:20.413,1.582923,1.696302,1.714802,1.694552
2020-11-15 23:02:20.430,1.583173,1.698427,1.708927,1.693677
2020-11-15 23:02:20.447,1.586548,1.699427,1.704177,1.692802
2020-11-15 23:02:20.464,1.585423,1.703927,1.708927,1.691427
2020-11-15 23:02:20.481,1.584798,1.711552,1.711802,1.692302
2020-11-15 23:02:20.498,1.583423,1.706177,1.720928,1.692427
2020-11-15 23:02:20.515,1.583423,1.701927,1.716552,1.694302
2020-11-15 23:02:20.532,1.583173,1.693427,1.715177,1.693427
2020-11-15 23:02:20.549,1.584423,1.699427,1.706927,1.693552
2020-11-15 23:02:20.566,1.586173,1.700927,1.706052,1.693177
2020-11-15 23:02:20.583,1.584923,1.710177,1.709677,1.691427
2020-11-15 23:02:20.600,1.584423,1.707302,1.716177,1.692552
2020-11-15 23:02:20.617,1.583048,1.705677,1.718052,1.692427
2020-11-15 23:02:20.634,1.582423,1.700302,1.715552,1.693552
2020-11-15 23:02:20.651,1.583048,1.694177,1.711802,1.693677
2020-11-15 23:02:20.668,1.585423,1.698552,1.702802,1.693427
2020-11-15 23:02:20.685,1.585423,1.704552,1.708177,1.692177
2020-11-15 23:02:20.702,1.585298,1.712052,1.707927,1.691927
2020-11-15 23:02:20.719,1.583798,1.706927,1.718552,1.692677
2020-11-15 23:02:20.736,1.583423,1.704427,1.715552,1.694302
2020-11-15 23:02:20.753,1.583423,1.695052,1.714677,1.694302
2020-11-15 23:02:20.770,1.583048,1.698677,1.710802,1.693802
2020-11-15 23:02:20.787,1.586048,1.700177,1.707677,1.693552
2020-11-15 23:02:20.804,1.584673,1.706302,1.709177,1.692177
2020-11-15 23:02:20.821,1.584298,1.710302,1.713427,1.693052
2020-11-15 23:02:20.838,1.583548,1.705802,1.722803,1.692677
2020-11-15 23:02:20.855,1.583298,1.702427,1.716052,1.692802
2020-11-15 23:02:20.872,1.583298,1.695552,1.714177,1.693677
2020-11-15 23:02:20.889,1.584673,1.699552,1.704552,1.693552
2020-11-15 23:02:20.906,1.587173,1.702302,1.707552,1.692802
2020-11-15 23:02:20.923,1.584923,1.711677,1.708802,1.692552
2020-11-15 23:02:20.940,1.584423,1.707302,1.713427,1.692177
2020-11-15 23:02:20.957,1.583298,1.706302,1.717052,1.693677
2020-11-15 23:02:20.974,1.583298,1.698052,1.715552,1.694927
2020-11-15 23:02:20.991,1.583298,1.696927,1.710052,1.693427
2020-11-15 23:02:21.008,1.586673,1.698802,1.702927,1.693802
2020-11-15 23:02:21.025,1.585923,1.702927,1.709052,1.691802
2020-11-15 23:02:21.042,1.584048,1.712177,1.711177,1.692052
2020-11-15 23:02:21.059,1.583923,1.705927,1.719802,1.692552
2020-11-15 23:02:21.076,1.583173,1.703177,1.716427,1.694052
2020-11-15 23:02:21.093,1.583423,1.693802,1.714927,1.693427
2020-11-15 23:02:21.110,1.583548,1.698052,1.709177,1.693927
2020-11-15 23:02:21.127,1.586423,1.700177,1.704052,1.692927
2020-11-15 23:02:21.144,1.584298,1.703302,1.707677,1.692427
2020-11-15 23:02:21.162,1.583673,1.712677,1.708427,1.691802
2020-11-15 23:02:21.179,1.583423,1.706302,1.720928,1.692427
2020-11-15 23:02:21.196,1.583048,1.704427,1.716802,1.693802
2020-11-15 23:02:21.213,1.582798,1.694677,1.715177,1.694552
2020-11-15 23:02:21.230,1.582048,1.698302,1.710677,1.693927
2020-11-15 23:02:21.247,1.587423,1.699302,1.706427,1.693177
2020-11-15 23:02:21.264,1.584423,1.704302,1.709052,1.692177
2020-11-15 23:02:21.281,1.584923,1.710677,1.712802,1.692427
2020-11-15 23:02:21.298,1.583048,1.706052,1.720803,1.691427
2020-11-15 23:02:21.315,1.582923,1.703052,1.715427,1.694302
2020-11-15 23:02:21.332,1.582798,1.693927,1.714302,1.693552
2020-11-15 23:02:21.349,1.584298,1.699177,1.705802,1.693302
2020-11-15 23:02:21.366,1.586798,1.701677,1.707052,1.692802
2020-11-15 23:02:21.383,1.584048,1.711427,1.708802,1.692427
2020-11-15 23:02:21.400,1.584048,1.707427,1.712677,1.692302
2020-11-15 23:02:21.417,1.583423,1.705927,1.721303,1.693177
2020-11-15 23:02:21.434,1.583048,1.699052,1.715427,1.693677
2020-11-15 23:02:21.451,1.583048,1.695677,1.711302,1.693552
2020-11-15 23:02:21.468,1.584923,1.699052,1.701802,1.693177
2020-11-15 23:02:21.485,1.584923,1.702302,1.708177,1.691927
2020-11-15 23:02:21.502,1.584423,1.711302,1.710177,1.692552
2020-11-15 23:02:21.519,1.583923,1.706177,1.719302,1.692802
2020-11-15 23:02:21.536,1.583298,1.703302,1.715552,1.693552
2020-11-15 23:02:21.553,1.582923,1.693802,1.714802,1.694052
2020-11-15 23:02:21.570,1.582923,1.699177,1.709802,1.693927
2020-11-15 23:02:21.587,1.586923,1.699677,1.702052,1.693427
2020-11-15 23:02:21.604,1.584298,1.707427,1.708802,1.691552
2020-11-15 23:02:21.621,1.584298,1.707552,1.713927,1.692552
2020-11-15 23:02:21.638,1.583673,1.705677,1.721553,1.692052
2020-11-15 23:02:21.655,1.582423,1.702177,1.715302,1.693552
2020-11-15 23:02:21.672,1.582798,1.692427,1.712927,1.693302
2020-11-15 23:02:21.689,1.584423,1.699802,1.703677,1.693677
2020-11-15 23:02:21.705,1.585923,1.702677,1.706927,1.692427
2020-11-15 23:02:21.722,1.583923,1.712177,1.708427,1.691427
2020-11-15 23:02:21.739,1.583173,1.707052,1.714677,1.692927
2020-11-15 23:02:21.756,1.583173,1.705552,1.716552,1.693177
2020-11-15 23:02:21.773,1.583298,1.696427,1.715177,1.694802
2020-11-15 23:02:21.790,1.583923,1.698677,1.709052,1.693802
2020-11-15 23:02:21.807,1.586923,1.699677,1.704552,1.693052
2020-11-15 23:02:21.824,1.585298,1.703302,1.709177,1.692052
2020-11-15 23:02:21.841,1.584173,1.712427,1.711677,1.692427
2020-11-15 23:02:21.858,1.583548,1.706177,1.721178,1.692677
2020-11-15 23:02:21.875,1.583173,1.701927,1.716052,1.694427
2020-11-15 23:02:21.892,1.582673,1.692927,1.714052,1.694177
2020-11-15 23:02:21.909,1.583298,1.699052,1.707052,1.693677
2020-11-15 23:02:21.926,1.586673,1.700677,1.707927,1.693177
2020-11-15 23:02:21.943,1.584548,1.710052,1.709552,1.691802
2020-11-15 23:02:21.960,1.584798,1.707427,1.716677,1.691177
2020-11-15 23:02:21.978,1.584173,1.706427,1.722053,1.692302
2020-11-15 23:02:21.995,1.583298,1.703677,1.715677,1.693052
2020-11-15 23:02:22.012,1.583298,1.694552,1.714177,1.694302
2020-11-15 23:02:22.029,1.584173,1.698177,1.706427,1.692927
2020-11-15 23:02:22.046,1.586548,1.701427,1.707427,1.693427
2020-11-15 23:02:22.063,1.584798,1.705677,1.708052,1.692427
2020-11-15 23:02:22.080,1.585048,1.707427,1.713302,1.692552
2020-11-15 23:02:22.097,1.583673,1.705552,1.721803,1.693177
2020-11-15 23:02:22.114,1.582798,1.699927,1.715052,1.695177
2020-11-15 23:02:22.131,1.582548,1.695677,1.713552,1.693802
2020-11-15 23:02:22.148,1.584423,1.699302,1.702552,1.694052
2020-11-15 23:02:22.165,1.584923,1.702052,1.708552,1.692302
2020-11-15 23:02:22.182,1.584923,1.712052,1.710177,1.692302
2020-11-15 23:02:22.199,1.583423,1.706677,1.719927,1.692052
2020-11-15 23:02:22.216,1.583923,1.705052,1.716427,1.692927
2020-11-15 23:02:22.233,1.583173,1.697802,1.715427,1.694052
2020-11-15 23:02:22.250,1.583923,1.698552,1.710302,1.694177
2020-11-15 23:02:22.267,1.587048,1.699802,1.703052,1.693302
2020-11-15 23:02:22.284,1.585048,1.707177,1.709052,1.691427
2020-11-15 23:02:22.301,1.584673,1.708427,1.711052,1.692927
2020-11-15 23:02:22.318,1.583548,1.705802,1.719052,1.692802
2020-11-15 23:02:22.335,1.583298,1.702927,1.715427,1.694052
2020-11-15 23:02:22.352,1.583298,1.693052,1.713552,1.693927
2020-11-15 23:02:22.369,1.584798,1.698677,1.704802,1.693927
2020-11-15 23:02:22.386,1.586923,1.699552,1.708052,1.692802
2020-11-15 23:02:22.403,1.584923,1.709427,1.709552,1.691177
2020-11-15 23:02:22.420,1.584298,1.706302,1.715677,1.692677
2020-11-15 23:02:22.437,1.583548,1.705302,1.719802,1.693177
2020-11-15 23:02:22.454,1.583673,1.696802,1.715302,1.695302
2020-11-15 23:02:22.471,1.582298,1.698302,1.712427,1.694302
2020-11-15 23:02:22.488,1.584173,1.699677,1.703302,1.693802
2020-11-15 23:02:22.505,1.586048,1.703927,1.707177,1.691802
2020-11-15 23:02:22.522,1.584798,1.712802,1.711552,1.692677
2020-11-15 23:02:22.539,1.583798,1.706677,1.720428,1.692302
2020-11-15 23:02:22.556,1.583173,1.704802,1.715927,1.693427
2020-11-15 23:02:22.573,1.582673,1.695427,1.715052,1.694552
2020-11-15 23:02:22.590,1.583673,1.698052,1.708052,1.693177
2020-11-15 23:02:22.607,1.587173,1.699302,1.705802,1.692677
2020-11-15 23:02:22.624,1.585798,1.710677,1.708552,1.691927
2020-11-15 23:02:22.641,1.584298,1.707052,1.711677,1.692927
2020-11-15 23:02:22.658,1.583798,1.706302,1.720803,1.693052
2020-11-15 23:02:22.674,1.582673,1.701552,1.716052,1.694927
2020-11-15 23:02:22.691,1.583673,1.693677,1.714302,1.693677
2020-11-15 23:02:22.708,1.583548,1.699177,1.702927,1.693552
2020-11-15 23:02:22.725,1.585423,1.701677,1.708552,1.692427
2020-11-15 23:02:22.743,1.584548,1.711052,1.709427,1.691927
2020-11-15 23:02:22.759,1.583298,1.705802,1.718427,1.692927
2020-11-15 23:02:22.776,1.583423,1.705552,1.716802,1.692927
2020-11-15 23:02:22.793,1.582798,1.702427,1.715052,1.693427
2020-11-15 23:02:22.812,1.583048,1.694427,1.713677,1.694302
2020-11-15 23:02:22.829,1.584548,1.699677,1.705302,1.693552
2020-11-15 23:02:22.846,1.587673,1.702052,1.707552,1.692802
2020-11-15 23:02:22.863,1.584798,1.711177,1.708802,1.693177
2020-11-15 23:02:22.880,1.585048,1.706677,1.714052,1.692552
2020-11-15 23:02:22.897,1.583548,1.706052,1.720678,1.692927
2020-11-15 23:02:22.914,1.582923,1.698802,1.714302,1.694927
2020-11-15 23:02:22.931,1.582673,1.697052,1.712052,1.694052
2020-11-15 23:02:22.948,1.586673,1.699302,1.703427,1.693802
2020-11-15 23:02:22.965,1.585173,1.702802,1.708677,1.692177
2020-11-15 23:02:22.982,1.584673,1.712802,1.710927,1.691927
2020-11-15 23:02:22.999,1.583923,1.706677,1.720177,1.691927
2020-11-15 23:02:23.016,1.583673,1.704802,1.715927,1.694552
2020-11-15 23:02:23.033,1.584048,1.693427,1.715427,1.693552
2020-11-15 23:02:23.049,1.583548,1.699177,1.709177,1.693302
2020-11-15 23:02:23.066,1.586423,1.700552,1.703802,1.693177
2020-11-15 23:02:23.083,1.585173,1.709177,1.708302,1.692302
2020-11-15 23:02:23.100,1.584298,1.706677,1.711427,1.692677
2020-11-15 23:02:23.118,1.583923,1.706302,1.720302,1.692927
2020-11-15 23:02:23.134,1.582798,1.702302,1.714927,1.694177
2020-11-15 23:02:23.151,1.582673,1.692802,1.713052,1.693677
2020-11-15 23:02:23.168,1.584548,1.698802,1.703677,1.692927
2020-11-15 23:02:23.185,1.586548,1.700552,1.708177,1.693177
2020-11-15 23:02:23.202,1.584548,1.709677,1.709177,1.691302
2020-11-15 23:02:23.219,1.583423,1.706677,1.716177,1.692802
2020-11-15 23:02:23.236,1.583298,1.705052,1.718052,1.693302
2020-11-15 23:02:23.253,1.583798,1.696552,1.714552,1.694552
2020-11-15 23:02:23.270,1.583548,1.698802,1.711427,1.693552
2020-11-15 23:02:23.287,1.585298,1.699677,1.701927,1.693677
2020-11-15 23:02:23.304,1.585548,1.704677,1.708052,1.692427
2020-11-15 23:02:23.321,1.584923,1.712802,1.711802,1.693052
2020-11-15 23:02:23.338,1.583548,1.706677,1.721928,1.691927
2020-11-15 23:02:23.355,1.582673,1.704177,1.716177,1.693927
2020-11-15 23:02:23.372,1.583673,1.695052,1.714302,1.694802
2020-11-15 23:02:23.389,1.583923,1.697427,1.706302,1.693302
2020-11-15 23:02:23.406,1.587173,1.699427,1.707177,1.693177
2020-11-15 23:02:23.423,1.585423,1.705427,1.708927,1.692302
2020-11-15 23:02:23.440,1.584548,1.707052,1.712552,1.692677
2020-11-15 23:02:23.457,1.583173,1.705552,1.721678,1.693427
2020-11-15 23:02:23.474,1.582798,1.699427,1.715302,1.694552
2020-11-15 23:02:23.491,1.583548,1.693802,1.714052,1.694427
2020-11-15 23:02:23.509,1.584298,1.697927,1.704677,1.694052
2020-11-15 23:02:23.526,1.587298,1.702052,1.707427,1.692552
2020-11-15 23:02:23.543,1.585048,1.711802,1.708427,1.692802
2020-11-15 23:02:23.560,1.584298,1.706677,1.713052,1.692427
2020-11-15 23:02:23.577,1.582423,1.705802,1.721678,1.693052
2020-11-15 23:02:23.594,1.582923,1.698802,1.714302,1.694927
2020-11-15 23:02:23.610,1.583798,1.696052,1.711302,1.693802
2020-11-15 23:02:23.629,1.584798,1.698802,1.704427,1.693802
2020-11-15 23:02:23.646,1.586798,1.699177,1.708052,1.692927
2020-11-15 23:02:23.663,1.584923,1.709052,1.709302,1.691927
2020-11-15 23:02:23.680,1.584673,1.706427,1.715052,1.692177
2020-11-15 23:02:23.697,1.583423,1.705802,1.719802,1.691927
2020-11-15 23:02:23.714,1.583548,1.697802,1.715677,1.695552
2020-11-15 23:02:23.731,1.583298,1.698052,1.712802,1.693927
2020-11-15 23:02:23.748,1.585298,1.699052,1.703677,1.693677
2020-11-15 23:02:23.765,1.586048,1.703552,1.706927,1.692052
2020-11-15 23:02:23.782,1.584548,1.712552,1.709177,1.693302
2020-11-15 23:02:23.799,1.584048,1.706427,1.715177,1.692552
2020-11-15 23:02:23.816,1.583048,1.704677,1.715802,1.693177
2020-11-15 23:02:23.833,1.582673,1.695927,1.714927,1.694302
2020-11-15 23:02:23.849,1.583798,1.698177,1.708427,1.693802
2020-11-15 23:02:23.866,1.587173,1.699677,1.706052,1.692802
2020-11-15 23:02:23.883,1.585048,1.704052,1.708802,1.691427
2020-11-15 23:02:23.900,1.584798,1.712177,1.711802,1.692677
2020-11-15 23:02:23.917,1.583923,1.706052,1.721303,1.692427
2020-11-15 23:02:23.934,1.583798,1.701677,1.716177,1.694552
2020-11-15 23:02:23.951,1.582423,1.692802,1.713927,1.694052
2020-11-15 23:02:23.968,1.583298,1.699552,1.706177,1.693052
2020-11-15 23:02:23.985,1.587673,1.701677,1.706802,1.692927
2020-11-15 23:02:24.002,1.584548,1.710302,1.709177,1.691552
2020-11-15 23:02:24.019,1.584423,1.707052,1.717427,1.692302
2020-11-15 23:02:24.036,1.583423,1.705677,1.717302,1.692552
2020-11-15 23:02:24.053,1.583673,1.700302,1.714802,1.694802
2020-11-15 23:02:24.070,1.583298,1.694552,1.710927,1.693427
2020-11-15 23:02:24.087,1.586173,1.698427,1.702427,1.693677
2020-11-15 23:02:24.104,1.585423,1.701177,1.708552,1.692177
2020-11-15 23:02:24.121,1.585173,1.711302,1.709802,1.692677
2020-11-15 23:02:24.138,1.584048,1.706052,1.718552,1.692427
2020-11-15 23:02:24.155,1.583798,1.703802,1.715927,1.693427
2020-11-15 23:02:24.172,1.583173,1.694302,1.714677,1.694427
2020-11-15 23:02:24.189,1.583673,1.698427,1.709802,1.693927
2020-11-15 23:02:24.206,1.588048,1.699802,1.707927,1.693302
2020-11-15 23:02:24.223,1.585173,1.705927,1.709177,1.691677
2020-11-15 23:02:24.240,1.584798,1.709177,1.713177,1.692177
2020-11-15 23:02:24.257,1.583423,1.705427,1.721553,1.692552
2020-11-15 23:02:24.274,1.583798,1.702927,1.715677,1.693677
2020-11-15 23:02:24.291,1.583173,1.693177,1.713802,1.693302
2020-11-15 23:02:24.308,1.584923,1.698052,1.704677,1.693177
2020-11-15 23:02:24.325,1.587298,1.699177,1.707802,1.692427
2020-11-15 23:02:24.342,1.584923,1.712052,1.708802,1.692177
2020-11-15 23:02:24.359,1.584173,1.707302,1.713927,1.692552
2020-11-15 23:02:24.376,1.583673,1.705927,1.720302,1.693052
2020-11-15 23:02:24.393,1.583298,1.697677,1.714552,1.695177
2020-11-15 23:02:24.410,1.582798,1.697552,1.712677,1.694427
2020-11-15 23:02:24.427,1.584298,1.699927,1.702927,1.693927
2020-11-15 23:02:24.444,1.584923,1.699427,1.708052,1.692927
2020-11-15 23:02:24.462,1.584923,1.709677,1.709052,1.691802
2020-11-15 23:02:24.479,1.584798,1.706927,1.715677,1.692927
2020-11-15 23:02:24.496,1.584173,1.705427,1.718802,1.692427
2020-11-15 23:02:24.513,1.583423,1.701427,1.714927,1.694052
2020-11-15 23:02:24.530,1.582923,1.692552,1.712052,1.693427
2020-11-15 23:02:24.547,1.585298,1.698802,1.703552,1.693677
2020-11-15 23:02:24.564,1.586048,1.703927,1.708052,1.692552
2020-11-15 23:02:24.581,1.584298,1.712677,1.709177,1.692802
2020-11-15 23:02:24.598,1.583298,1.706427,1.716927,1.692927
2020-11-15 23:02:24.615,1.583798,1.704427,1.716552,1.693427
2020-11-15 23:02:24.632,1.583173,1.695552,1.714927,1.695052
2020-11-15 23:02:24.649,1.583923,1.699052,1.707802,1.694052
2020-11-15 23:02:24.666,1.587048,1.698927,1.706802,1.693427
2020-11-15 23:02:24.683,1.584923,1.704552,1.708802,1.691427
2020-11-15 23:02:24.700,1.584548,1.710927,1.711927,1.692552
2020-11-15 23:02:24.717,1.583923,1.705677,1.722053,1.691677
2020-11-15 23:02:24.734,1.583673,1.701302,1.715677,1.694552
2020-11-15 23:02:24.751,1.583048,1.694677,1.714427,1.693677
2020-11-15 23:02:24.768,1.583048,1.699427,1.705177,1.693552
2020-11-15 23:02:24.785,1.587173,1.701802,1.707177,1.692552
2020-11-15 23:02:24.802,1.584923,1.709927,1.707552,1.692927
2020-11-15 23:02:24.819,1.584298,1.707052,1.717177,1.692302
2020-11-15 23:02:24.836,1.583673,1.705302,1.716177,1.692927
2020-11-15 23:02:24.853,1.582798,1.699177,1.715552,1.694177
2020-11-15 23:02:24.870,1.582923,1.695427,1.711177,1.693677
2020-11-15 23:02:24.887,1.587048,1.699302,1.702302,1.692927
2020-11-15 23:02:24.904,1.584923,1.701427,1.708552,1.691802
2020-11-15 23:02:24.921,1.583923,1.710052,1.709802,1.692802
2020-11-15 23:02:24.938,1.584173,1.706552,1.719427,1.692677
2020-11-15 23:02:24.955,1.583048,1.702802,1.716302,1.693927
2020-11-15 23:02:24.972,1.582423,1.693927,1.714677,1.694177
2020-11-15 23:02:24.989,1.582923,1.698177,1.710552,1.693927
2020-11-15 23:02:25.006,1.586298,1.699677,1.702302,1.692927
2020-11-15 23:02:25.023,1.584548,1.707677,1.708552,1.691927
2020-11-15 23:02:25.040,1.584173,1.708177,1.713052,1.691802
2020-11-15 23:02:25.057,1.583423,1.705552,1.721678,1.692427
2020-11-15 23:02:25.074,1.583673,1.702802,1.715552,1.694052
2020-11-15 23:02:25.091,1.582423,1.692802,1.712677,1.693552
2020-11-15 23:02:25.108,1.584298,1.699802,1.704052,1.693427
2020-11-15 23:02:25.125,1.587048,1.699552,1.708302,1.692802
2020-11-15 23:02:25.142,1.584798,1.712052,1.708427,1.691802
2020-11-15 23:02:25.159,1.583548,1.706677,1.714552,1.692427
2020-11-15 23:02:25.176,1.582798,1.704927,1.719052,1.692927
2020-11-15 23:02:25.193,1.583298,1.697177,1.714552,1.694927
2020-11-15 23:02:25.210,1.582173,1.698802,1.711427,1.693552
2020-11-15 23:02:25.227,1.584423,1.699927,1.703927,1.693177
2020-11-15 23:02:25.244,1.585423,1.703427,1.708552,1.692302
2020-11-15 23:02:25.261,1.585173,1.712927,1.710802,1.690927
2020-11-15 23:02:25.279,1.584298,1.706552,1.716052,1.693052
2020-11-15 23:02:25.296,1.583548,1.705677,1.717677,1.692677
2020-11-15 23:02:25.313,1.583423,1.700427,1.715677,1.694302
2020-11-15 23:02:25.330,1.583298,1.693427,1.712052,1.693927
2020-11-15 23:02:25.347,1.585173,1.699802,1.702177,1.692802
2020-11-15 23:02:25.364,1.585048,1.704302,1.708052,1.692052
2020-11-15 23:02:25.381,1.584798,1.712052,1.708802,1.692927
2020-11-15 23:02:25.398,1.583798,1.706302,1.716552,1.692552
2020-11-15 23:02:25.415,1.582798,1.703802,1.715677,1.693427
2020-11-15 23:02:25.432,1.583048,1.694802,1.714552,1.695427
2020-11-15 23:02:25.449,1.583423,1.698052,1.706927,1.693427
2020-11-15 23:02:25.466,1.587173,1.699177,1.707052,1.692802
2020-11-15 23:02:25.483,1.584923,1.705427,1.709427,1.692052
2020-11-15 23:02:25.500,1.584423,1.710052,1.712552,1.692052
2020-11-15 23:02:25.517,1.583798,1.705302,1.721928,1.692552
2020-11-15 23:02:25.534,1.582923,1.700552,1.716052,1.694552
2020-11-15 23:02:25.551,1.582548,1.694802,1.713177,1.693802
2020-11-15 23:02:25.568,1.583798,1.699552,1.703927,1.693177
2020-11-15 23:02:25.585,1.587173,1.702052,1.707052,1.692552
2020-11-15 23:02:25.601,1.584423,1.711802,1.708052,1.692177
2020-11-15 23:02:25.618,1.583423,1.706927,1.719052,1.692302
2020-11-15 23:02:25.635,1.583673,1.706052,1.715927,1.692802
2020-11-15 23:02:25.652,1.583673,1.698177,1.715177,1.694677
2020-11-15 23:02:25.669,1.582798,1.696427,1.710552,1.693427
2020-11-15 23:02:25.686,1.586048,1.698927,1.702427,1.693177
2020-11-15 23:02:25.703,1.585298,1.706177,1.708802,1.691677
2020-11-15 23:02:25.720,1.584798,1.709427,1.710052,1.692302
2020-11-15 23:02:25.737,1.583923,1.706677,1.719052,1.692677
2020-11-15 23:02:25.754,1.582548,1.703052,1.716052,1.694177
2020-11-15 23:02:25.771,1.582423,1.694302,1.714302,1.693677
2020-11-15 23:02:25.789,1.583423,1.699552,1.709177,1.693552
2020-11-15 23:02:25.806,1.586298,1.699427,1.703427,1.693302
2020-11-15 23:02:25.823,1.585173,1.708052,1.707927,1.691552
2020-11-15 23:02:25.840,1.585048,1.707177,1.710302,1.692302
2020-11-15 23:02:25.857,1.583298,1.705802,1.719677,1.692802
2020-11-15 23:02:25.874,1.582173,1.702177,1.715177,1.694427
2020-11-15 23:02:25.891,1.583548,1.693302,1.713177,1.693552
2020-11-15 23:02:25.908,1.584048,1.698927,1.703052,1.693427
2020-11-15 23:02:25.925,1.585423,1.699927,1.707552,1.693052
2020-11-15 23:02:25.942,1.585048,1.708927,1.708927,1.691052
2020-11-15 23:02:25.959,1.583673,1.706177,1.715177,1.692927
2020-11-15 23:02:25.976,1.583298,1.705177,1.718802,1.693427
2020-11-15 23:02:25.993,1.582423,1.695927,1.715052,1.694552
2020-11-15 23:02:26.009,1.582423,1.698677,1.712302,1.694052
2020-11-15 23:02:26.026,1.584423,1.699552,1.702302,1.693677
2020-11-15 23:02:26.043,1.585548,1.703802,1.707302,1.692177
2020-11-15 23:02:26.060,1.584673,1.713552,1.708802,1.692802
2020-11-15 23:02:26.077,1.584298,1.706302,1.720302,1.692177
2020-11-15 23:02:26.094,1.583298,1.705052,1.716802,1.692927
2020-11-15 23:02:26.113,1.583298,1.700552,1.715177,1.695052
2020-11-15 23:02:26.130,1.583173,1.694427,1.711552,1.693802
2020-11-15 23:02:26.147,1.585048,1.698927,1.702177,1.692927
2020-11-15 23:02:26.164,1.584548,1.701427,1.708427,1.692052
2020-11-15 23:02:26.181,1.584173,1.710677,1.709677,1.692177
2020-11-15 23:02:26.198,1.583423,1.706302,1.718427,1.692427
2020-11-15 23:02:26.215,1.582923,1.703802,1.715677,1.693427
2020-11-15 23:02:26.232,1.582673,1.694427,1.715177,1.693927
2020-11-15 23:02:26.249,1.582923,1.698677,1.710052,1.692927
2020-11-15 23:02:26.266,1.585298,1.698927,1.707802,1.692677
2020-11-15 23:02:26.283,1.584298,1.706802,1.709052,1.691802
2020-11-15 23:02:26.299,1.584048,1.709177,1.712927,1.692427
2020-11-15 23:02:26.316,1.582673,1.705427,1.721928,1.691802
2020-11-15 23:02:26.333,1.582798,1.702677,1.715552,1.693177
2020-11-15 23:02:26.350,1.583298,1.693677,1.713552,1.694052
2020-11-15 23:02:26.367,1.583798,1.698927,1.704302,1.693427
2020-11-15 23:02:26.384,1.586548,1.702052,1.707427,1.692177
2020-11-15 23:02:26.401,1.584798,1.711302,1.708677,1.691927
2020-11-15 23:02:26.418,1.583798,1.706802,1.713427,1.692552
2020-11-15 23:02:26.435,1.582923,1.705552,1.720177,1.692427
2020-11-15 23:02:26.452,1.583173,1.697927,1.714677,1.694302
2020-11-15 23:02:26.469,1.583173,1.697552,1.710052,1.693427
2020-11-15 23:02:26.486,1.585673,1.698802,1.703052,1.693302
2020-11-15 23:02:26.503,1.585173,1.702427,1.708677,1.691552
2020-11-15 23:02:26.520,1.584298,1.712052,1.711177,1.691927
2020-11-15 23:02:26.537,1.583548,1.705802,1.719552,1.692927
2020-11-15 23:02:26.554,1.582673,1.702677,1.716177,1.694302
2020-11-15 23:02:26.571,1.582798,1.692802,1.714302,1.693802
2020-11-15 23:02:26.588,1.583173,1.699177,1.708677,1.694177
2020-11-15 23:02:26.605,1.586048,1.699927,1.703677,1.692802
2020-11-15 23:02:26.622,1.584798,1.708927,1.707677,1.691552
2020-11-15 23:02:26.639,1.583173,1.706677,1.714427,1.692177
2020-11-15 23:02:26.656,1.582798,1.706177,1.720052,1.692302
2020-11-15 23:02:26.673,1.582423,1.701802,1.715177,1.694427
2020-11-15 23:02:26.690,1.582673,1.692802,1.712302,1.693052
2020-11-15 23:02:26.707,1.584048,1.698052,1.703052,1.692677
2020-11-15 23:02:26.724,1.586423,1.700302,1.707427,1.691677
2020-11-15 23:02:26.741,1.584048,1.709552,1.708802,1.692427
2020-11-15 23:02:26.758,1.583673,1.706427,1.715927,1.692177
2020-11-15 23:02:26.775,1.583548,1.704927,1.718302,1.693302
2020-11-15 23:02:26.792,1.581798,1.695177,1.714927,1.695052
2020-11-15 23:02:26.809,1.581798,1.698427,1.711552,1.693927
2020-11-15 23:02:26.826,1.584548,1.698677,1.701427,1.693177
2020-11-15 23:02:26.843,1.584673,1.704302,1.708802,1.691677
2020-11-15 23:02:26.860,1.583673,1.713052,1.711552,1.692302
2020-11-15 23:02:26.877,1.583673,1.706302,1.721053,1.692302
2020-11-15 23:02:26.894,1.582423,1.703802,1.715177,1.693177
2020-11-15 23:02:26.911,1.582798,1.694927,1.714427,1.694052
2020-11-15 23:02:26.929,1.583048,1.694177,1.710927,1.693427
2020-11-15 23:02:26.946,1.585548,1.699427,1.702177,1.693052
2020-11-15 23:02:26.963,1.584298,1.705802,1.708927,1.691802
2020-11-15 23:02:26.980,1.584048,1.710302,1.710177,1.692052
2020-11-15 23:02:26.997,1.582923,1.706552,1.718677,1.692677
2020-11-15 23:02:27.014,1.582923,1.702802,1.715052,1.693552
2020-11-15 23:02:27.031,1.581798,1.694177,1.713677,1.694177
2020-11-15 23:02:27.048,1.583673,1.698802,1.705052,1.693677
2020-11-15 23:02:27.065,1.586673,1.699677,1.707177,1.692552
2020-11-15 23:02:27.082,1.584798,1.706552,1.708302,1.691677
2020-11-15 23:02:27.099,1.584048,1.707927,1.713052,1.692177
2020-11-15 23:02:27.116,1.582923,1.705177,1.721803,1.692302
2020-11-15 23:02:27.133,1.582923,1.702427,1.715552,1.694052
2020-11-15 23:02:27.150,1.583173,1.696052,1.712927,1.693427
2020-11-15 23:02:27.167,1.584173,1.699052,1.703802,1.693302
2020-11-15 23:02:27.184,1.586048,1.702177,1.707802,1.691927
2020-11-15 23:02:27.201,1.584173,1.711927,1.708177,1.692177
2020-11-15 23:02:27.218,1.583923,1.706552,1.719302,1.691802
2020-11-15 23:02:27.235,1.583048,1.705302,1.716177,1.693052
2020-11-15 23:02:27.252,1.583423,1.696927,1.714927,1.694052
2020-11-15 23:02:27.269,1.583173,1.697677,1.709802,1.692927
2020-11-15 23:02:27.286,1.585923,1.698927,1.703177,1.692927
2020-11-15 23:02:27.303,1.585173,1.703052,1.708677,1.691802
2020-11-15 23:02:27.319,1.584298,1.707552,1.710802,1.692427
2020-11-15 23:02:27.336,1.582798,1.705802,1.720428,1.692302
2020-11-15 23:02:27.353,1.582923,1.702177,1.715927,1.693677
2020-11-15 23:02:27.370,1.582298,1.693052,1.714177,1.693677
2020-11-15 23:02:27.387,1.582798,1.698802,1.707427,1.692802
2020-11-15 23:02:27.404,1.585923,1.700302,1.707927,1.692677
2020-11-15 23:02:27.421,1.584298,1.708677,1.708677,1.691052
2020-11-15 23:02:27.438,1.583298,1.706552,1.714677,1.692677
2020-11-15 23:02:27.455,1.583048,1.705427,1.719302,1.691927
2020-11-15 23:02:27.472,1.582548,1.701552,1.714677,1.694052
2020-11-15 23:02:27.489,1.582298,1.692552,1.712177,1.693177
2020-11-15 23:02:27.506,1.584548,1.699052,1.703177,1.693302
2020-11-15 23:02:27.523,1.584923,1.703427,1.708052,1.691927
2020-11-15 23:02:27.540,1.584048,1.712552,1.708302,1.692177
2020-11-15 23:02:27.557,1.584048,1.705802,1.715927,1.691927
2020-11-15 23:02:27.574,1.583173,1.705177,1.716677,1.692927
2020-11-15 23:02:27.591,1.582173,1.695302,1.714677,1.694427
2020-11-15 23:02:27.608,1.582423,1.698052,1.707927,1.693552
2020-11-15 23:02:27.625,1.586298,1.699302,1.705552,1.692927
2020-11-15 23:02:27.642,1.584423,1.703802,1.708677,1.691302
2020-11-15 23:02:27.659,1.584173,1.710927,1.711802,1.691927
2020-11-15 23:02:27.676,1.583048,1.705927,1.721178,1.692177
2020-11-15 23:02:27.693,1.583298,1.700927,1.714802,1.692552
2020-11-15 23:02:27.710,1.582298,1.693552,1.714427,1.693177
2020-11-15 23:02:27.727,1.584298,1.698427,1.705927,1.693677
2020-11-15 23:02:27.744,1.586798,1.698677,1.701552,1.693677
2020-11-15 23:02:27.762,1.584673,1.706302,1.707802,1.691427
2020-11-15 23:02:27.779,1.584423,1.709802,1.709302,1.691802
2020-11-15 23:02:27.796,1.582798,1.706427,1.718927,1.692427
2020-11-15 23:02:27.813,1.582548,1.703177,1.715302,1.693552
2020-11-15 23:02:27.830,1.582923,1.693927,1.713802,1.693302
2020-11-15 23:02:27.847,1.583548,1.697927,1.704552,1.692302
2020-11-15 23:02:27.864,1.586673,1.699677,1.707177,1.691552
2020-11-15 23:02:27.881,1.583923,1.707427,1.708802,1.691302
2020-11-15 23:02:27.898,1.584048,1.706677,1.712927,1.692552
2020-11-15 23:02:27.915,1.583298,1.705552,1.721303,1.692552
2020-11-15 23:02:27.932,1.582798,1.698177,1.714427,1.694302
2020-11-15 23:02:27.949,1.582173,1.696802,1.712552,1.693177
2020-11-15 23:02:27.966,1.583548,1.699052,1.703427,1.693552
2020-11-15 23:02:27.983,1.586048,1.702552,1.706552,1.691802
2020-11-15 23:02:28.000,1.583048,1.712177,1.710177,1.692052
2020-11-15 23:02:28.017,1.583298,1.706177,1.719552,1.692052
2020-11-15 23:02:28.034,1.582798,1.705302,1.715552,1.692677
2020-11-15 23:02:28.051,1.582798,1.696552,1.714802,1.693927
2020-11-15 23:02:28.068,1.583048,1.697677,1.709177,1.692802
2020-11-15 23:02:28.085,1.586673,1.699177,1.703677,1.693177
2020-11-15 23:02:28.102,1.585173,1.702552,1.708427,1.691052
2020-11-15 23:02:28.119,1.584298,1.712302,1.710802,1.691802
2020-11-15 23:02:28.136,1.582673,1.705427,1.720553,1.691677
2020-11-15 23:02:28.153,1.582423,1.703802,1.716302,1.692427
2020-11-15 23:02:28.170,1.582423,1.694927,1.714802,1.693552
2020-11-15 23:02:28.187,1.583298,1.697302,1.707177,1.693552
2020-11-15 23:02:28.204,1.586923,1.700177,1.705302,1.693552
2020-11-15 23:02:28.221,1.584548,1.709927,1.708677,1.691552
2020-11-15 23:02:28.238,1.583923,1.706677,1.711677,1.692177
2020-11-15 23:02:28.255,1.582173,1.705427,1.720678,1.692177
2020-11-15 23:02:28.272,1.582298,1.701427,1.714927,1.694052
2020-11-15 23:02:28.289,1.583173,1.693427,1.711677,1.693677
2020-11-15 23:02:28.306,1.584173,1.698802,1.702052,1.693302
2020-11-15 23:02:28.323,1.585048,1.700302,1.707552,1.692927
2020-11-15 23:02:28.340,1.584048,1.710177,1.709177,1.691052
2020-11-15 23:02:28.357,1.583923,1.706552,1.716927,1.691677
2020-11-15 23:02:28.374,1.583423,1.704427,1.716927,1.693052
2020-11-15 23:02:28.391,1.582423,1.694552,1.714677,1.694802
2020-11-15 23:02:28.408,1.583048,1.697677,1.711427,1.693552
2020-11-15 23:02:28.425,1.585423,1.699552,1.702302,1.693177
2020-11-15 23:02:28.442,1.584423,1.704552,1.706927,1.691427
2020-11-15 23:02:28.459,1.583923,1.711177,1.709052,1.692302
2020-11-15 23:02:28.476,1.583173,1.705302,1.718052,1.692302
2020-11-15 23:02:28.493,1.582423,1.703927,1.715552,1.693052
2020-11-15 23:02:28.510,1.582673,1.694052,1.714677,1.694177
2020-11-15 23:02:28.527,1.583548,1.697802,1.705302,1.693177
2020-11-15 23:02:28.544,1.586673,1.699302,1.707177,1.692552
2020-11-15 23:02:28.561,1.584298,1.705802,1.708302,1.690802
2020-11-15 23:02:28.579,1.584548,1.711052,1.710052,1.691677
2020-11-15 23:02:28.596,1.583548,1.705177,1.719552,1.691927
2020-11-15 23:02:28.613,1.583173,1.702802,1.715802,1.693552
2020-11-15 23:02:28.630,1.582298,1.693677,1.714052,1.693677
2020-11-15 23:02:28.647,1.582423,1.698177,1.709427,1.693052
2020-11-15 23:02:28.664,1.585548,1.699427,1.702052,1.692552
2020-11-15 23:02:28.681,1.584173,1.707302,1.708927,1.691302
2020-11-15 23:02:28.698,1.583923,1.707177,1.714177,1.692427
2020-11-15 23:02:28.715,1.583173,1.705677,1.721178,1.692552
2020-11-15 23:02:28.732,1.582298,1.701677,1.714177,1.692927
2020-11-15 23:02:28.749,1.582423,1.692052,1.712427,1.692677
2020-11-15 23:02:28.766,1.584048,1.698177,1.703427,1.693177
2020-11-15 23:02:28.783,1.585548,1.702177,1.707177,1.691552
2020-11-15 23:02:28.800,1.584298,1.712552,1.708552,1.692052
2020-11-15 23:02:28.817,1.583798,1.706552,1.714927,1.692427
2020-11-15 23:02:28.834,1.583173,1.704552,1.717802,1.692927
2020-11-15 23:02:28.851,1.582298,1.695802,1.714302,1.694552
2020-11-15 23:02:28.868,1.582798,1.698552,1.708427,1.693302
2020-11-15 23:02:28.885,1.586423,1.699052,1.704552,1.693177
2020-11-15 23:02:28.902,1.584298,1.703052,1.708427,1.692427
2020-11-15 23:02:28.919,1.584423,1.712177,1.708177,1.691927
2020-11-15 23:02:28.936,1.584173,1.706302,1.715677,1.691677
2020-11-15 23:02:28.953,1.582548,1.704052,1.715927,1.692552
2020-11-15 23:02:28.970,1.582798,1.695052,1.714677,1.694427
2020-11-15 23:02:28.988,1.582923,1.697052,1.707052,1.692927
2020-11-15 23:02:29.005,1.586673,1.699052,1.705677,1.692802
2020-11-15 23:02:29.021,1.584048,1.703677,1.708802,1.691052
2020-11-15 23:02:29.039,1.584423,1.711302,1.711927,1.691552
2020-11-15 23:02:29.055,1.582423,1.705177,1.721053,1.691677
2020-11-15 23:02:29.073,1.582298,1.703052,1.715802,1.692677
2020-11-15 23:02:29.090,1.582923,1.693802,1.714177,1.693177
2020-11-15 23:02:29.106,1.582673,1.698802,1.705177,1.693177
2020-11-15 23:02:29.123,1.586673,1.700552,1.707302,1.692552
2020-11-15 23:02:29.140,1.584048,1.710302,1.708177,1.691052
2020-11-15 23:02:29.157,1.584298,1.706677,1.711802,1.692052
2020-11-15 23:02:29.174,1.582423,1.705052,1.720302,1.692052
2020-11-15 23:02:29.191,1.582798,1.699302,1.714802,1.694302
2020-11-15 23:02:29.208,1.583048,1.694927,1.710802,1.693427
2020-11-15 23:02:29.225,1.586173,1.698427,1.701927,1.692302
2020-11-15 23:02:29.242,1.584548,1.701302,1.707927,1.691302
2020-11-15 23:02:29.259,1.583798,1.709677,1.709302,1.691427
2020-11-15 23:02:29.276,1.583298,1.705427,1.718677,1.692302
2020-11-15 23:02:29.293,1.582298,1.702802,1.715802,1.693552
2020-11-15 23:02:29.310,1.581923,1.693927,1.714802,1.694052
2020-11-15 23:02:29.327,1.583048,1.697802,1.709427,1.693177
2020-11-15 23:02:29.344,1.585173,1.699302,1.701177,1.693427
2020-11-15 23:02:29.361,1.584173,1.706302,1.707302,1.691427
2020-11-15 23:02:29.378,1.584298,1.708677,1.709552,1.691927
2020-11-15 23:02:29.395,1.582048,1.705677,1.719052,1.692052
2020-11-15 23:02:29.414,1.582798,1.705177,1.715927,1.691802
2020-11-15 23:02:29.430,1.582423,1.696052,1.714677,1.694552
2020-11-15 23:02:29.448,1.582798,1.696927,1.708677,1.692927
2020-11-15 23:02:29.464,1.585798,1.698552,1.703552,1.692302
2020-11-15 23:02:29.482,1.584173,1.702552,1.707927,1.691177
2020-11-15 23:02:29.499,1.583673,1.711427,1.710427,1.692177
2020-11-15 23:02:29.515,1.582673,1.705302,1.720302,1.692052
2020-11-15 23:02:29.532,1.581923,1.701677,1.715177,1.694052
2020-11-15 23:02:29.549,1.582798,1.692177,1.713802,1.693552
2020-11-15 23:02:29.566,1.583298,1.698677,1.707427,1.693302
2020-11-15 23:02:29.583,1.586423,1.700052,1.704802,1.692302
2020-11-15 23:02:29.600,1.584173,1.709427,1.708552,1.691427
2020-11-15 23:02:29.617,1.583423,1.706802,1.715552,1.691677
2020-11-15 23:02:29.634,1.583298,1.704802,1.718177,1.692177
2020-11-15 23:02:29.651,1.582423,1.700927,1.714427,1.693552
2020-11-15 23:02:29.668,1.583173,1.692927,1.711677,1.692927
2020-11-15 23:02:29.685,1.585298,1.698177,1.702302,1.693052
2020-11-15 23:02:29.702,1.584798,1.703802,1.707302,1.691302
2020-11-15 23:02:29.719,1.584048,1.712677,1.708677,1.692052
2020-11-15 23:02:29.736,1.583048,1.705302,1.716052,1.692552
2020-11-15 23:02:29.753,1.582423,1.704052,1.716677,1.693802
2020-11-15 23:02:29.770,1.582673,1.694677,1.714302,1.694427
2020-11-15 23:02:29.787,1.581548,1.698427,1.709802,1.693552
2020-11-15 23:02:29.804,1.585298,1.699052,1.701302,1.692802
2020-11-15 23:02:29.821,1.584048,1.704177,1.707927,1.691427
2020-11-15 23:02:29.838,1.583923,1.710302,1.711802,1.691927
2020-11-15 23:02:29.855,1.582548,1.705552,1.721803,1.692177
2020-11-15 23:02:29.872,1.582673,1.703052,1.715302,1.692927
2020-11-15 23:02:29.889,1.582048,1.694427,1.713802,1.693677
2020-11-15 23:02:29.906,1.583423,1.697302,1.705552,1.693052
2020-11-15 23:02:29.923,1.586673,1.698302,1.706427,1.692552
2020-11-15 23:02:29.940,1.583798,1.710427,1.708302,1.691427
2020-11-15 23:02:29.957,1.584048,1.706802,1.712677,1.692552
2020-11-15 23:02:29.974,1.582923,1.705802,1.721303,1.692677
2020-11-15 23:02:29.991,1.582048,1.698927,1.714677,1.693927
2020-11-15 23:02:30.008,1.582173,1.694677,1.713052,1.693552
2020-11-15 23:02:30.025,1.583048,1.698802,1.703177,1.692802
2020-11-15 23:02:30.042,1.586298,1.701552,1.708427,1.692552
2020-11-15 23:02:30.059,1.584423,1.711302,1.709552,1.692177
2020-11-15 23:02:30.076,1.583548,1.706427,1.718802,1.692177
2020-11-15 23:02:30.093,1.582673,1.704927,1.715802,1.692302
2020-11-15 23:02:30.110,1.582798,1.697302,1.714427,1.694052
2020-11-15 23:02:30.127,1.583173,1.696302,1.709302,1.693177
2020-11-15 23:02:30.144,1.585048,1.698552,1.702052,1.692802
2020-11-15 23:02:30.161,1.584423,1.707302,1.708302,1.691802
2020-11-15 23:02:30.178,1.583548,1.708302,1.710677,1.691552
2020-11-15 23:02:30.195,1.582548,1.705302,1.720052,1.692427
2020-11-15 23:02:30.212,1.582298,1.703302,1.715552,1.691677
2020-11-15 23:02:30.231,1.581923,1.695552,1.714802,1.694177
2020-11-15 23:02:30.248,1.582048,1.697677,1.711302,1.693677
2020-11-15 23:02:30.265,1.583923,1.698927,1.702677,1.692552
2020-11-15 23:02:30.282,1.584548,1.703427,1.706927,1.691927
2020-11-15 23:02:30.299,1.583673,1.711927,1.708302,1.691927
2020-11-15 23:02:30.316,1.582798,1.705677,1.719802,1.691802
2020-11-15 23:02:30.333,1.583048,1.704177,1.715677,1.692427
2020-11-15 23:02:30.350,1.582923,1.695177,1.714302,1.693802
2020-11-15 23:02:30.367,1.582673,1.697052,1.706802,1.692802
2020-11-15 23:02:30.384,1.585298,1.698802,1.701427,1.692427
2020-11-15 23:02:30.401,1.584548,1.704802,1.707302,1.691552
2020-11-15 23:02:30.418,1.583923,1.711552,1.711052,1.691802
2020-11-15 23:02:30.435,1.583173,1.705302,1.721303,1.691552
2020-11-15 23:02:30.452,1.582923,1.703052,1.714927,1.692552
2020-11-15 23:02:30.469,1.582548,1.693927,1.714052,1.693427
2020-11-15 23:02:30.486,1.582923,1.697927,1.705427,1.693052
2020-11-15 23:02:30.503,1.586798,1.698677,1.707552,1.692052
2020-11-15 23:02:30.520,1.583923,1.704927,1.707927,1.691427
2020-11-15 23:02:30.537,1.584173,1.706802,1.712427,1.692802
2020-11-15 23:02:30.554,1.583048,1.705927,1.721428,1.692427
2020-11-15 23:02:30.571,1.582423,1.699552,1.714302,1.694052
2020-11-15 23:02:30.588,1.582173,1.694427,1.713302,1.693427
2020-11-15 23:02:30.605,1.583298,1.698552,1.704427,1.693427
2020-11-15 23:02:30.622,1.586548,1.702052,1.707927,1.691927
2020-11-15 23:02:30.639,1.584173,1.710302,1.709302,1.691427
2020-11-15 23:02:30.656,1.582923,1.705552,1.718677,1.691677
2020-11-15 23:02:30.673,1.582423,1.704677,1.715427,1.692177
2020-11-15 23:02:30.690,1.582923,1.697177,1.714677,1.694177
2020-11-15 23:02:30.707,1.582173,1.696302,1.709552,1.693302
2020-11-15 23:02:30.724,1.585798,1.697927,1.702052,1.692552
2020-11-15 23:02:30.741,1.584548,1.706427,1.707552,1.691052
2020-11-15 23:02:30.758,1.583423,1.708677,1.709802,1.691802
2020-11-15 23:02:30.775,1.582798,1.705177,1.719302,1.691677
2020-11-15 23:02:30.792,1.582173,1.702427,1.715052,1.693677
2020-11-15 23:02:30.809,1.582173,1.693802,1.713802,1.693427
2020-11-15 23:02:30.826,1.582673,1.697802,1.707802,1.692552
2020-11-15 23:02:30.843,1.586173,1.699552,1.706927,1.692927
2020-11-15 23:02:30.860,1.584548,1.708302,1.708677,1.691052
2020-11-15 23:02:30.877,1.583673,1.706677,1.713802,1.691177
2020-11-15 23:02:30.894,1.582548,1.705052,1.719927,1.692052
2020-11-15 23:02:30.911,1.581923,1.700927,1.714677,1.693302
2020-11-15 23:02:30.928,1.583298,1.692052,1.712177,1.693302
2020-11-15 23:02:30.945,1.583798,1.698427,1.703427,1.693677
2020-11-15 23:02:30.962,1.586173,1.702927,1.707177,1.692052
2020-11-15 23:02:30.979,1.583798,1.711927,1.707802,1.692052
2020-11-15 23:02:30.996,1.582423,1.705802,1.715552,1.692677
2020-11-15 23:02:31.013,1.582423,1.704927,1.718052,1.692552
2020-11-15 23:02:31.030,1.582423,1.695302,1.714927,1.694302
2020-11-15 23:02:31.047,1.582923,1.692302,1.711302,1.693552
2020-11-15 23:02:31.065,1.584673,1.698802,1.703052,1.692427
2020-11-15 23:02:31.082,1.585173,1.700552,1.707052,1.691802
2020-11-15 23:02:31.099,1.584173,1.709927,1.708427,1.691552
2020-11-15 23:02:31.116,1.583923,1.706302,1.716927,1.691302
2020-11-15 23:02:31.133,1.582173,1.705052,1.716302,1.692052
2020-11-15 23:02:31.150,1.582173,1.699302,1.714677,1.694052
2020-11-15 23:02:31.167,1.581923,1.697427,1.710677,1.692927
2020-11-15 23:02:31.184,1.584548,1.698927,1.701802,1.693177
2020-11-15 23:02:31.201,1.584173,1.704427,1.707302,1.691052
2020-11-15 23:02:31.218,1.583923,1.711052,1.708802,1.691677
2020-11-15 23:02:31.235,1.582673,1.706302,1.717927,1.692177
2020-11-15 23:02:31.252,1.582673,1.702802,1.714677,1.692927
2020-11-15 23:02:31.269,1.582673,1.693927,1.713552,1.693552
2020-11-15 23:02:31.286,1.582673,1.697927,1.704802,1.693302
2020-11-15 23:02:31.303,1.585548,1.699177,1.707677,1.692677
2020-11-15 23:02:31.320,1.583798,1.705927,1.708927,1.691302
2020-11-15 23:02:31.337,1.583173,1.708052,1.712052,1.691802
2020-11-15 23:02:31.354,1.582298,1.705177,1.721678,1.691302
2020-11-15 23:02:31.371,1.582423,1.701802,1.714677,1.692802
2020-11-15 23:02:31.388,1.582923,1.693427,1.712927,1.692552
2020-11-15 23:02:31.405,1.583298,1.697927,1.704177,1.692302
2020-11-15 23:02:31.422,1.586298,1.701677,1.707177,1.691552
2020-11-15 23:02:31.439,1.583798,1.711177,1.708927,1.691677
2020-11-15 23:02:31.456,1.583923,1.706302,1.713302,1.692052
2020-11-15 23:02:31.473,1.582923,1.705552,1.720177,1.692427
2020-11-15 23:02:31.490,1.582048,1.697677,1.714052,1.694677
2020-11-15 23:02:31.507,1.582298,1.696927,1.711552,1.692677
2020-11-15 23:02:31.524,1.584048,1.699302,1.703552,1.693677
2020-11-15 23:02:31.541,1.585798,1.702677,1.708177,1.691302
2020-11-15 23:02:31.558,1.583048,1.711427,1.709802,1.691927
2020-11-15 23:02:31.575,1.583423,1.705677,1.719427,1.691552
2020-11-15 23:02:31.592,1.582423,1.704677,1.715552,1.692427
2020-11-15 23:02:31.609,1.583173,1.695177,1.714052,1.693927
2020-11-15 23:02:31.626,1.583048,1.697677,1.708802,1.692177
2020-11-15 23:02:31.643,1.586048,1.698302,1.704177,1.692552
2020-11-15 23:02:31.660,1.583923,1.708302,1.707802,1.690927
2020-11-15 23:02:31.677,1.584048,1.706427,1.711177,1.692177
2020-11-15 23:02:31.694,1.582548,1.705302,1.720177,1.692177
2020-11-15 23:02:31.711,1.582423,1.701677,1.714552,1.693927
2020-11-15 23:02:31.728,1.582423,1.692302,1.713677,1.692802
2020-11-15 23:02:31.745,1.583298,1.698677,1.706427,1.693177
2020-11-15 23:02:31.762,1.585798,1.700302,1.707552,1.692552
2020-11-15 23:02:31.779,1.584048,1.709302,1.709052,1.691427
2020-11-15 23:02:31.796,1.583423,1.706177,1.716052,1.692177
2020-11-15 23:02:31.813,1.582923,1.704927,1.717177,1.691677
2020-11-15 23:02:31.830,1.582423,1.700427,1.715052,1.693802
2020-11-15 23:02:31.847,1.582298,1.692427,1.711052,1.692927
2020-11-15 23:02:31.864,1.584048,1.698177,1.702677,1.692802
2020-11-15 23:02:31.882,1.586548,1.698427,1.707302,1.692677
2020-11-15 23:02:31.899,1.584048,1.705427,1.707552,1.691552
2020-11-15 23:02:31.917,1.583923,1.707177,1.711802,1.692302
2020-11-15 23:02:31.933,1.582923,1.705052,1.719677,1.692052
2020-11-15 23:02:31.951,1.582673,1.699552,1.714927,1.694052
2020-11-15 23:02:31.968,1.581798,1.694802,1.712427,1.693177
2020-11-15 23:02:31.985,1.583673,1.698802,1.703677,1.692677
2020-11-15 23:02:32.002,1.586173,1.701552,1.707302,1.692052
2020-11-15 23:02:32.019,1.584298,1.711052,1.707802,1.691177
2020-11-15 23:02:32.036,1.582798,1.706427,1.712677,1.692552
2020-11-15 23:02:32.053,1.581798,1.705552,1.715302,1.692677
2020-11-15 23:02:32.070,1.582548,1.698427,1.714177,1.693427
2020-11-15 23:02:32.087,1.583548,1.696677,1.709927,1.692927
2020-11-15 23:02:32.104,1.586048,1.698427,1.702177,1.692552
2020-11-15 23:02:32.121,1.583673,1.701927,1.708552,1.691302
2020-11-15 23:02:32.138,1.583798,1.711552,1.709802,1.692052
2020-11-15 23:02:32.155,1.583423,1.705677,1.718802,1.691802
2020-11-15 23:02:32.172,1.582423,1.701927,1.715552,1.693177
2020-11-15 23:02:32.189,1.582048,1.693302,1.713927,1.692552
2020-11-15 23:02:32.206,1.582298,1.698427,1.708552,1.693302
2020-11-15 23:02:32.223,1.585173,1.699302,1.702927,1.692302
2020-11-15 23:02:32.240,1.584298,1.708052,1.708302,1.691052
2020-11-15 23:02:32.257,1.583298,1.706552,1.713677,1.691177
2020-11-15 23:02:32.273,1.582173,1.705052,1.720177,1.692052
2020-11-15 23:02:32.290,1.582048,1.701677,1.714177,1.693302
2020-11-15 23:02:32.307,1.582048,1.692427,1.712302,1.692677
2020-11-15 23:02:32.324,1.583673,1.697677,1.703552,1.692427
2020-11-15 23:02:32.341,1.585798,1.699177,1.707052,1.691677
2020-11-15 23:02:32.358,1.584173,1.711677,1.709052,1.691802
2020-11-15 23:02:32.375,1.583423,1.705677,1.714552,1.691552
2020-11-15 23:02:32.392,1.582673,1.704802,1.717177,1.692802
2020-11-15 23:02:32.409,1.581673,1.695927,1.714802,1.694677
2020-11-15 23:02:32.426,1.582298,1.697427,1.710177,1.692802
2020-11-15 23:02:32.443,1.584423,1.698677,1.704302,1.692802
2020-11-15 23:02:32.460,1.584298,1.703302,1.708302,1.691177
2020-11-15 23:02:32.477,1.584173,1.711302,1.711052,1.691302
2020-11-15 23:02:32.494,1.582798,1.705302,1.720302,1.691927
2020-11-15 23:02:32.511,1.581923,1.703052,1.714927,1.692177
2020-11-15 23:02:32.528,1.582673,1.694302,1.714802,1.693427
2020-11-15 23:02:32.545,1.582423,1.698927,1.705927,1.693052
2020-11-15 23:02:32.562,1.586048,1.700052,1.705927,1.692302
2020-11-15 23:02:32.579,1.583423,1.709677,1.707927,1.691177
2020-11-15 23:02:32.596,1.583423,1.706302,1.710677,1.692052
2020-11-15 23:02:32.613,1.582048,1.704552,1.720052,1.691677
2020-11-15 23:02:32.630,1.581298,1.700177,1.714177,1.694302
2020-11-15 23:02:32.647,1.582298,1.693802,1.711177,1.692927
2020-11-15 23:02:32.664,1.584798,1.698677,1.702052,1.693052
2020-11-15 23:02:32.681,1.586173,1.701427,1.706302,1.691927
2020-11-15 23:02:32.699,1.584048,1.705427,1.707052,1.691552
2020-11-15 23:02:32.717,1.583173,1.708802,1.709052,1.691302
2020-11-15 23:02:32.734,1.582423,1.705552,1.721178,1.691927
2020-11-15 23:02:32.751,1.582548,1.702302,1.714927,1.692677
2020-11-15 23:02:32.768,1.582173,1.692927,1.712802,1.693177
2020-11-15 23:02:32.785,1.583798,1.698177,1.703552,1.693052
2020-11-15 23:02:32.802,1.586548,1.698552,1.707427,1.691427
2020-11-15 23:02:32.819,1.584173,1.706427,1.708302,1.690677
2020-11-15 23:02:32.836,1.583423,1.706052,1.713552,1.691677
2020-11-15 23:02:32.853,1.582923,1.705052,1.720428,1.692302
2020-11-15 23:02:32.870,1.582548,1.696552,1.714927,1.694302
2020-11-15 23:02:32.887,1.581923,1.697052,1.711802,1.693052
2020-11-15 23:02:32.904,1.582923,1.698052,1.702677,1.692802
2020-11-15 23:02:32.921,1.585673,1.702677,1.706677,1.691927
2020-11-15 23:02:32.938,1.583298,1.712427,1.710427,1.691427
2020-11-15 23:02:32.955,1.582048,1.706427,1.719927,1.692177
2020-11-15 23:02:32.972,1.582173,1.704677,1.715427,1.692552
2020-11-15 23:02:32.989,1.581923,1.695302,1.713302,1.693302
2020-11-15 23:02:33.006,1.583673,1.697927,1.709052,1.692552
2020-11-15 23:02:33.023,1.586173,1.698427,1.704177,1.692302
2020-11-15 23:02:33.040,1.583923,1.702177,1.708177,1.691302
2020-11-15 23:02:33.057,1.584048,1.706552,1.710802,1.691802
2020-11-15 23:02:33.074,1.582798,1.705427,1.719927,1.692302
2020-11-15 23:02:33.091,1.581548,1.700802,1.714677,1.693677
2020-11-15 23:02:33.108,1.581923,1.692302,1.713427,1.693177
2020-11-15 23:02:33.125,1.582548,1.698677,1.706052,1.693052
2020-11-15 23:02:33.142,1.585423,1.699677,1.707302,1.691802
2020-11-15 23:02:33.159,1.584048,1.709052,1.708802,1.691052
2020-11-15 23:02:33.175,1.583423,1.706427,1.715552,1.691552
2020-11-15 23:02:33.192,1.582673,1.704802,1.717677,1.691302
2020-11-15 23:02:33.209,1.582173,1.700427,1.714802,1.693677
2020-11-15 23:02:33.226,1.583048,1.692677,1.711052,1.693302
2020-11-15 23:02:33.243,1.583798,1.699552,1.701802,1.692927
2020-11-15 23:02:33.260,1.585298,1.703177,1.707302,1.691677
2020-11-15 23:02:33.277,1.583048,1.711052,1.708302,1.692802
2020-11-15 23:02:33.294,1.582923,1.705552,1.716427,1.692427
2020-11-15 23:02:33.311,1.581923,1.703427,1.715052,1.693177
2020-11-15 23:02:33.328,1.581798,1.694177,1.713927,1.693802
2020-11-15 23:02:33.345,1.583048,1.697802,1.706552,1.692427
2020-11-15 23:02:33.362,1.585798,1.698052,1.706677,1.692302
2020-11-15 23:02:33.379,1.583548,1.704177,1.708177,1.690677
2020-11-15 23:02:33.396,1.583173,1.708802,1.712302,1.691177
2020-11-15 23:02:33.413,1.582923,1.705177,1.721678,1.692177
2020-11-15 23:02:33.430,1.582048,1.699927,1.715552,1.694052
2020-11-15 23:02:33.447,1.581798,1.693927,1.713427,1.693052
2020-11-15 23:02:33.464,1.583048,1.699052,1.704177,1.693177
2020-11-15 23:02:33.481,1.586048,1.701052,1.706302,1.691802
2020-11-15 23:02:33.498,1.582798,1.710552,1.708302,1.691552
2020-11-15 23:02:33.515,1.584173,1.706552,1.718427,1.690927
2020-11-15 23:02:33.533,1.582173,1.705052,1.721178,1.691802
2020-11-15 23:02:33.550,1.582673,1.702552,1.714552,1.693177
2020-11-15 23:02:33.567,1.582048,1.693552,1.712552,1.693177
2020-11-15 23:02:33.584,1.583923,1.698177,1.703802,1.692052
2020-11-15 23:02:33.601,1.585673,1.699052,1.707427,1.692052
2020-11-15 23:02:33.618,1.584048,1.707677,1.707427,1.690802
2020-11-15 23:02:33.635,1.583048,1.705927,1.713802,1.692302
2020-11-15 23:02:33.652,1.582673,1.704927,1.719177,1.692427
2020-11-15 23:02:33.669,1.581548,1.696677,1.714177,1.693677
2020-11-15 23:02:33.686,1.582173,1.697302,1.712177,1.692802
2020-11-15 23:02:33.703,1.583298,1.698302,1.702552,1.692802
2020-11-15 23:02:33.720,1.584923,1.702677,1.706177,1.691677
2020-11-15 23:02:33.737,1.583298,1.712177,1.707552,1.692052
2020-11-15 23:02:33.754,1.582923,1.706052,1.719927,1.691927
2020-11-15 23:02:33.771,1.581798,1.704802,1.715552,1.692427
2020-11-15 23:02:33.788,1.582048,1.694677,1.713677,1.694302
2020-11-15 23:02:33.805,1.582173,1.697427,1.707677,1.692927
2020-11-15 23:02:33.822,1.586048,1.698302,1.704052,1.691927
2020-11-15 23:02:33.839,1.584548,1.702677,1.707927,1.691427
2020-11-15 23:02:33.856,1.584173,1.706302,1.710677,1.692052
2020-11-15 23:02:33.873,1.582548,1.704677,1.720302,1.692177
2020-11-15 23:02:33.890,1.581673,1.700927,1.714802,1.693552
2020-11-15 23:02:33.907,1.581173,1.692427,1.713177,1.693302
2020-11-15 23:02:33.924,1.582423,1.698177,1.705552,1.693427
2020-11-15 23:02:33.941,1.585923,1.700177,1.705552,1.691802
2020-11-15 23:02:33.958,1.582673,1.709427,1.708427,1.691552
2020-11-15 23:02:33.975,1.583298,1.706802,1.716427,1.691677
2020-11-15 23:02:33.992,1.582548,1.704802,1.717177,1.691677
2020-11-15 23:02:34.009,1.582298,1.699802,1.714427,1.692927
2020-11-15 23:02:34.026,1.581923,1.693677,1.711427,1.693177
2020-11-15 23:02:34.043,1.584298,1.698177,1.701802,1.693302
2020-11-15 23:02:34.060,1.583923,1.700302,1.708302,1.691427
2020-11-15 23:02:34.077,1.583673,1.709677,1.709427,1.691427
2020-11-15 23:02:34.094,1.582923,1.705427,1.718552,1.692552
2020-11-15 23:02:34.111,1.581423,1.703302,1.715302,1.692677
2020-11-15 23:02:34.128,1.581923,1.694552,1.714302,1.693677
2020-11-15 23:02:34.145,1.581798,1.697677,1.710052,1.693302
2020-11-15 23:02:34.162,1.584923,1.698802,1.701427,1.692552
2020-11-15 23:02:34.179,1.583923,1.705427,1.708552,1.691677
2020-11-15 23:02:34.196,1.583173,1.709302,1.712052,1.692177
2020-11-15 23:02:34.213,1.582923,1.705927,1.721053,1.692302
2020-11-15 23:02:34.230,1.582298,1.702427,1.714927,1.692927
2020-11-15 23:02:34.247,1.583048,1.693552,1.713302,1.693052
2020-11-15 23:02:34.264,1.582298,1.696927,1.704052,1.692677
2020-11-15 23:02:34.281,1.585923,1.698177,1.707052,1.691677
2020-11-15 23:02:34.298,1.583798,1.706427,1.707802,1.690302
2020-11-15 23:02:34.315,1.582423,1.705802,1.712927,1.692052
2020-11-15 23:02:34.332,1.582048,1.704927,1.720428,1.692052
2020-11-15 23:02:34.349,1.581673,1.700927,1.714927,1.693677
2020-11-15 23:02:34.368,1.582798,1.692802,1.714052,1.693927
2020-11-15 23:02:34.385,1.581923,1.698177,1.707677,1.693052
2020-11-15 23:02:34.402,1.585298,1.699427,1.703427,1.692302
2020-11-15 23:02:34.419,1.584048,1.707802,1.707302,1.691302
2020-11-15 23:02:34.436,1.582673,1.706052,1.711052,1.692177
2020-11-15 23:02:34.453,1.582798,1.705677,1.719177,1.692052
2020-11-15 23:02:34.470,1.582423,1.701552,1.714802,1.693177
2020-11-15 23:02:34.487,1.582173,1.692177,1.712052,1.692552
2020-11-15 23:02:34.504,1.583298,1.697552,1.703302,1.692427
2020-11-15 23:02:34.520,1.585548,1.699552,1.707802,1.691677
2020-11-15 23:02:34.538,1.583673,1.709302,1.708552,1.690427
2020-11-15 23:02:34.555,1.582798,1.705802,1.715677,1.691552
2020-11-15 23:02:34.572,1.582048,1.704677,1.717677,1.692177
2020-11-15 23:02:34.589,1.581298,1.695052,1.714302,1.694427
2020-11-15 23:02:34.606,1.581548,1.697552,1.711052,1.693177
2020-11-15 23:02:34.623,1.583798,1.698552,1.701052,1.692552
2020-11-15 23:02:34.639,1.584173,1.703802,1.706927,1.691427
2020-11-15 23:02:34.657,1.583173,1.711677,1.707802,1.691552
2020-11-15 23:02:34.674,1.582298,1.705802,1.720678,1.691552
2020-11-15 23:02:34.691,1.582548,1.703552,1.715052,1.692427
2020-11-15 23:02:34.708,1.582548,1.694552,1.714177,1.693427
2020-11-15 23:02:34.724,1.582923,1.697427,1.705802,1.691802
2020-11-15 23:02:34.741,1.585798,1.698552,1.706302,1.692677
2020-11-15 23:02:34.759,1.583673,1.703927,1.707802,1.690927
2020-11-15 23:02:34.776,1.583673,1.709427,1.712052,1.691802
2020-11-15 23:02:34.793,1.582673,1.705427,1.721178,1.691927
2020-11-15 23:02:34.810,1.582173,1.699177,1.715052,1.694302
2020-11-15 23:02:34.826,1.582798,1.693552,1.712802,1.692927
2020-11-15 23:02:34.843,1.582673,1.698927,1.703927,1.692802
2020-11-15 23:02:34.860,1.586173,1.700927,1.706927,1.691802
2020-11-15 23:02:34.878,1.583423,1.711177,1.707552,1.691927
2020-11-15 23:02:34.895,1.583548,1.706427,1.717927,1.691802
2020-11-15 23:02:34.911,1.582173,1.705302,1.715427,1.692427
2020-11-15 23:02:34.929,1.582673,1.697677,1.714552,1.694052
2020-11-15 23:02:34.946,1.582798,1.695677,1.709802,1.692677
2020-11-15 23:02:34.963,1.585798,1.698177,1.701302,1.692552
2020-11-15 23:02:34.980,1.585673,1.702177,1.705802,1.691677
2020-11-15 23:02:34.997,1.584048,1.711802,1.709552,1.691302
2020-11-15 23:02:35.014,1.582423,1.705802,1.719427,1.692052
2020-11-15 23:02:35.031,1.582673,1.704927,1.716177,1.692052
2020-11-15 23:02:35.048,1.581423,1.696802,1.714552,1.694927
2020-11-15 23:02:35.065,1.582298,1.696677,1.708552,1.692677
2020-11-15 23:02:35.082,1.585923,1.698552,1.703177,1.692177
2020-11-15 23:02:35.099,1.584298,1.701802,1.708052,1.691177
2020-11-15 23:02:35.116,1.583048,1.711427,1.710802,1.691927
2020-11-15 23:02:35.133,1.582798,1.705302,1.720177,1.691802
2020-11-15 23:02:35.150,1.582298,1.701552,1.715302,1.693552
2020-11-15 23:02:35.167,1.581798,1.692302,1.713802,1.693302
2020-11-15 23:02:35.185,1.581548,1.697927,1.710302,1.692802
2020-11-15 23:02:35.202,1.584298,1.699302,1.702302,1.692927
2020-11-15 23:02:35.219,1.584923,1.703552,1.706677,1.691677
2020-11-15 23:02:35.236,1.583048,1.711427,1.708302,1.692177
2020-11-15 23:02:35.253,1.582298,1.704802,1.716802,1.691302
2020-11-15 23:02:35.270,1.581798,1.703677,1.715427,1.692927
2020-11-15 23:02:35.288,1.581048,1.694552,1.713802,1.694177
2020-11-15 23:02:35.304,1.583173,1.697677,1.706177,1.693177
2020-11-15 23:02:35.321,1.586173,1.698052,1.706427,1.692427
2020-11-15 23:02:35.338,1.583548,1.704302,1.708052,1.691052
2020-11-15 23:02:35.356,1.583423,1.709302,1.711552,1.691052
2020-11-15 23:02:35.373,1.583423,1.705052,1.721803,1.691177
2020-11-15 23:02:35.390,1.581923,1.702177,1.714802,1.694177
2020-11-15 23:02:35.407,1.581798,1.693677,1.713052,1.693427
2020-11-15 23:02:35.423,1.582548,1.699052,1.703802,1.692927
2020-11-15 23:02:35.440,1.586298,1.700927,1.707052,1.691927
2020-11-15 23:02:35.458,1.584048,1.710677,1.707427,1.691427
2020-11-15 23:02:35.475,1.583298,1.706677,1.711802,1.691927
2020-11-15 23:02:35.492,1.581923,1.705302,1.720678,1.692302
2020-11-15 23:02:35.509,1.581923,1.697427,1.713927,1.694302
2020-11-15 23:02:35.526,1.582798,1.695427,1.710052,1.693177
2020-11-15 23:02:35.543,1.585798,1.698677,1.702177,1.692552
2020-11-15 23:02:35.560,1.584173,1.701677,1.707802,1.691302
2020-11-15 23:02:35.577,1.583548,1.710802,1.710052,1.691302
2020-11-15 23:02:35.594,1.582673,1.705427,1.718552,1.691177
2020-11-15 23:02:35.611,1.582423,1.704802,1.716052,1.691927
2020-11-15 23:02:35.628,1.582048,1.696427,1.714302,1.693677
2020-11-15 23:02:35.645,1.582173,1.698302,1.708927,1.693802
2020-11-15 23:02:35.662,1.584923,1.699052,1.702677,1.692427
2020-11-15 23:02:35.679,1.584548,1.706677,1.707177,1.691677
2020-11-15 23:02:35.696,1.583798,1.707677,1.709552,1.692052
2020-11-15 23:02:35.713,1.581673,1.705177,1.719302,1.692052
2020-11-15 23:02:35.730,1.582048,1.701677,1.714802,1.693052
2020-11-15 23:02:35.747,1.581298,1.692552,1.712052,1.692927
2020-11-15 23:02:35.764,1.582173,1.698927,1.703552,1.692927
2020-11-15 23:02:35.781,1.585173,1.698927,1.706927,1.692302
2020-11-15 23:02:35.798,1.583298,1.708177,1.707927,1.690677
2020-11-15 23:02:35.815,1.583423,1.705552,1.714677,1.692427
2020-11-15 23:02:35.832,1.582173,1.705427,1.719052,1.691552
2020-11-15 23:02:35.849,1.581298,1.699802,1.714802,1.692802
2020-11-15 23:02:35.866,1.582423,1.691802,1.712052,1.692802
2020-11-15 23:02:35.883,1.583673,1.698677,1.702552,1.692677
2020-11-15 23:02:35.900,1.584548,1.703052,1.706552,1.691427
2020-11-15 23:02:35.916,1.582923,1.711927,1.708052,1.691802
2020-11-15 23:02:35.933,1.582548,1.705427,1.715177,1.692052
2020-11-15 23:02:35.950,1.582298,1.704302,1.716302,1.692677
2020-11-15 23:02:35.968,1.581423,1.694552,1.713927,1.694677
2020-11-15 23:02:35.985,1.581423,1.697677,1.706677,1.692302
2020-11-15 23:02:36.001,1.585423,1.697552,1.701802,1.693302
2020-11-15 23:02:36.020,1.584173,1.700927,1.707802,1.692427
2020-11-15 23:02:36.037,1.584048,1.710177,1.709677,1.691302
2020-11-15 23:02:36.054,1.582548,1.706177,1.717677,1.691677
2020-11-15 23:02:36.071,1.582048,1.704302,1.715552,1.692677
2020-11-15 23:02:36.088,1.582298,1.697427,1.714302,1.692927
2020-11-15 23:02:36.105,1.582298,1.695052,1.710302,1.693427
2020-11-15 23:02:36.122,1.585423,1.698552,1.701302,1.692427
2020-11-15 23:02:36.139,1.583798,1.705552,1.708052,1.691427
2020-11-15 23:02:36.156,1.583798,1.709552,1.708927,1.692052
2020-11-15 23:02:36.173,1.582423,1.705552,1.719177,1.692177
2020-11-15 23:02:36.190,1.581548,1.702177,1.715302,1.693052
2020-11-15 23:02:36.207,1.581673,1.693177,1.713927,1.693427
2020-11-15 23:02:36.224,1.581548,1.697677,1.704302,1.692802
2020-11-15 23:02:36.241,1.586048,1.699052,1.706677,1.691802
2020-11-15 23:02:36.258,1.583673,1.705802,1.707802,1.691052
2020-11-15 23:02:36.275,1.582798,1.706927,1.712427,1.691302
2020-11-15 23:02:36.292,1.582548,1.704802,1.720553,1.691302
2020-11-15 23:02:36.309,1.582048,1.700677,1.714427,1.692552
2020-11-15 23:02:36.326,1.581048,1.691427,1.711927,1.693052
2020-11-15 23:02:36.343,1.583048,1.698677,1.702927,1.693052
2020-11-15 23:02:36.360,1.585048,1.702302,1.706802,1.691927
2020-11-15 23:02:36.377,1.583298,1.711552,1.707552,1.691802
2020-11-15 23:02:36.394,1.583673,1.705677,1.713552,1.691552
2020-11-15 23:02:36.411,1.582048,1.704802,1.718177,1.692302
2020-11-15 23:02:36.428,1.582048,1.696802,1.714177,1.694427
2020-11-15 23:02:36.445,1.581923,1.697427,1.710677,1.692552
2020-11-15 23:02:36.462,1.585048,1.698177,1.703552,1.692552
2020-11-15 23:02:36.479,1.584423,1.702552,1.707552,1.690802
2020-11-15 23:02:36.496,1.583423,1.711677,1.710302,1.691302
2020-11-15 23:02:36.513,1.582423,1.704927,1.719177,1.691427
2020-11-15 23:02:36.530,1.581673,1.703552,1.715302,1.691802
2020-11-15 23:02:36.547,1.581298,1.694552,1.714052,1.693052
2020-11-15 23:02:36.564,1.582673,1.698927,1.706427,1.692677
2020-11-15 23:02:36.581,1.585423,1.699427,1.705052,1.692052
2020-11-15 23:02:36.598,1.583548,1.708552,1.707677,1.690427
2020-11-15 23:02:36.615,1.583423,1.706677,1.710802,1.691927
2020-11-15 23:02:36.632,1.582298,1.704927,1.720052,1.692427
2020-11-15 23:02:36.649,1.581298,1.700177,1.714552,1.694052
2020-11-15 23:02:36.666,1.581173,1.693302,1.713427,1.693177
2020-11-15 23:02:36.683,1.581173,1.698302,1.701927,1.692552
2020-11-15 23:02:36.700,1.584673,1.700677,1.706677,1.691927
2020-11-15 23:02:36.717,1.583173,1.709677,1.708302,1.691052
2020-11-15 23:02:36.734,1.582673,1.705802,1.716802,1.691427
2020-11-15 23:02:36.751,1.582173,1.704302,1.715052,1.691802
2020-11-15 23:02:36.768,1.581798,1.697927,1.714302,1.692427
2020-11-15 23:02:36.785,1.581673,1.693927,1.710302,1.693052
2020-11-15 23:02:36.802,1.584298,1.698677,1.701802,1.692302
2020-11-15 23:02:36.819,1.583923,1.704427,1.707177,1.690677
2020-11-15 23:02:36.837,1.583798,1.710552,1.707427,1.691677
2020-11-15 23:02:36.854,1.583048,1.705677,1.712302,1.691677
2020-11-15 23:02:36.871,1.581923,1.705177,1.720177,1.692052
2020-11-15 23:02:36.888,1.581923,1.697427,1.714052,1.694177
2020-11-15 23:02:36.905,1.581548,1.696302,1.711802,1.692927
2020-11-15 23:02:36.922,1.582423,1.698427,1.701552,1.692302
2020-11-15 23:02:36.939,1.585048,1.701677,1.708052,1.691927
2020-11-15 23:02:36.956,1.583298,1.711427,1.709677,1.691302
2020-11-15 23:02:36.973,1.581798,1.705302,1.719302,1.690802
2020-11-15 23:02:36.990,1.582423,1.705177,1.716302,1.691802
2020-11-15 23:02:37.007,1.581548,1.695802,1.714177,1.693677
2020-11-15 23:02:37.024,1.582923,1.696927,1.708052,1.692427
2020-11-15 23:02:37.041,1.585173,1.698427,1.703302,1.692302
2020-11-15 23:02:37.058,1.583673,1.702427,1.707927,1.691552
2020-11-15 23:02:37.075,1.584173,1.711677,1.711052,1.690677
2020-11-15 23:02:37.092,1.582423,1.704427,1.719677,1.692177
2020-11-15 23:02:37.109,1.582048,1.701552,1.714802,1.693427
2020-11-15 23:02:37.126,1.582423,1.692427,1.713552,1.693302
2020-11-15 23:02:37.143,1.582048,1.698177,1.706552,1.692427
2020-11-15 23:02:37.160,1.586048,1.699552,1.704677,1.691802
2020-11-15 23:02:37.177,1.583298,1.708927,1.706802,1.690927
2020-11-15 23:02:37.194,1.583298,1.706677,1.710677,1.691927
2020-11-15 23:02:37.211,1.582173,1.705302,1.717552,1.692552
2020-11-15 23:02:37.228,1.582548,1.700552,1.714302,1.693927
2020-11-15 23:02:37.245,1.581548,1.692927,1.710802,1.692552
2020-11-15 23:02:37.262,1.583298,1.698552,1.702427,1.692677
2020-11-15 23:02:37.280,1.584423,1.700052,1.707552,1.692302
2020-11-15 23:02:37.297,1.583673,1.710052,1.708677,1.690927
2020-11-15 23:02:37.314,1.582548,1.705677,1.716177,1.691677
2020-11-15 23:02:37.331,1.581798,1.705052,1.715552,1.691927
2020-11-15 23:02:37.348,1.581798,1.698427,1.714552,1.693677
2020-11-15 23:02:37.365,1.582548,1.693552,1.711177,1.692802
2020-11-15 23:02:37.382,1.584923,1.698052,1.701177,1.692802
2020-11-15 23:02:37.399,1.584423,1.704927,1.707927,1.691427
2020-11-15 23:02:37.416,1.583048,1.710177,1.708802,1.691802
2020-11-15 23:02:37.433,1.582798,1.705927,1.717927,1.691677
2020-11-15 23:02:37.450,1.581673,1.702552,1.714677,1.692802
2020-11-15 23:02:37.467,1.581798,1.693802,1.713302,1.693552
2020-11-15 23:02:37.483,1.582173,1.697427,1.704052,1.693052
2020-11-15 23:02:37.501,1.586673,1.698802,1.706927,1.692552
2020-11-15 23:02:37.518,1.583798,1.706177,1.708052,1.691302
2020-11-15 23:02:37.535,1.582298,1.707427,1.712427,1.691427
2020-11-15 23:02:37.551,1.582173,1.705677,1.721053,1.691052
2020-11-15 23:02:37.569,1.582298,1.701677,1.713927,1.692177
2020-11-15 23:02:37.585,1.581923,1.692177,1.713052,1.693052
2020-11-15 23:02:37.603,1.583298,1.697302,1.702927,1.693052
2020-11-15 23:02:37.620,1.585798,1.701927,1.706427,1.691552
2020-11-15 23:02:37.637,1.583673,1.711552,1.708552,1.691802
2020-11-15 23:02:37.653,1.582673,1.705302,1.710427,1.691552
2020-11-15 23:02:37.672,1.581798,1.705552,1.719552,1.692677
2020-11-15 23:02:37.689,1.581798,1.700927,1.714427,1.693427
2020-11-15 23:02:37.706,1.581298,1.692302,1.711802,1.692927
2020-11-15 23:02:37.723,1.582548,1.698177,1.702802,1.693052
2020-11-15 23:02:37.740,1.584798,1.699927,1.707302,1.691927
2020-11-15 23:02:37.757,1.583923,1.709052,1.708177,1.690177
2020-11-15 23:02:37.774,1.582923,1.705552,1.715427,1.691052
2020-11-15 23:02:37.791,1.582298,1.704052,1.717302,1.692677
2020-11-15 23:02:37.808,1.581673,1.695552,1.714302,1.694552
2020-11-15 23:02:37.825,1.581923,1.697552,1.711302,1.692927
2020-11-15 23:02:37.842,1.584048,1.698552,1.701802,1.692802
2020-11-15 23:02:37.859,1.584548,1.703677,1.707302,1.691302
2020-11-15 23:02:37.875,1.583298,1.711052,1.707677,1.692052
2020-11-15 23:02:37.892,1.581548,1.705177,1.715927,1.691302
2020-11-15 23:02:37.909,1.581923,1.703177,1.714802,1.692427
2020-11-15 23:02:37.926,1.581673,1.694052,1.713927,1.693802
2020-11-15 23:02:37.944,1.582298,1.697302,1.705802,1.693177
2020-11-15 23:02:37.960,1.585298,1.698177,1.706177,1.692177
2020-11-15 23:02:37.978,1.583923,1.704177,1.707302,1.690927
2020-11-15 23:02:37.994,1.583298,1.708927,1.711427,1.690427
2020-11-15 23:02:38.011,1.581923,1.704552,1.720928,1.692052
2020-11-15 23:02:38.028,1.582048,1.699927,1.714302,1.693302
2020-11-15 23:02:38.045,1.581423,1.694052,1.713052,1.693177
2020-11-15 23:02:38.062,1.581923,1.698177,1.703427,1.693427
2020-11-15 23:02:38.079,1.586673,1.700552,1.706302,1.691802
2020-11-15 23:02:38.096,1.583798,1.710677,1.707427,1.691052
2020-11-15 23:02:38.114,1.582298,1.705302,1.711677,1.692552
2020-11-15 23:02:38.130,1.582423,1.705052,1.720678,1.692677
2020-11-15 23:02:38.148,1.581173,1.697927,1.713927,1.694052
2020-11-15 23:02:38.165,1.582048,1.695802,1.710427,1.692802
2020-11-15 23:02:38.182,1.584423,1.698052,1.701177,1.693052
2020-11-15 23:02:38.199,1.583298,1.702052,1.707177,1.690802
2020-11-15 23:02:38.216,1.583173,1.710677,1.709802,1.691052
2020-11-15 23:02:38.233,1.582298,1.705052,1.718802,1.690927
2020-11-15 23:02:38.250,1.581298,1.703927,1.715552,1.692802
2020-11-15 23:02:38.267,1.581173,1.693052,1.713677,1.693552
2020-11-15 23:02:38.284,1.582048,1.697927,1.708552,1.692552
2020-11-15 23:02:38.301,1.584173,1.698927,1.702677,1.692177
2020-11-15 23:02:38.318,1.583548,1.707552,1.707552,1.690927
2020-11-15 23:02:38.335,1.583048,1.706302,1.707552,1.691427
2020-11-15 23:02:38.352,1.582173,1.705052,1.718927,1.691802
2020-11-15 23:02:38.369,1.581048,1.701677,1.714927,1.693052
2020-11-15 23:02:38.386,1.582048,1.692177,1.713177,1.693302
2020-11-15 23:02:38.403,1.582048,1.698302,1.706677,1.692427
2020-11-15 23:02:38.420,1.584923,1.699052,1.703552,1.692177
2020-11-15 23:02:38.437,1.582673,1.708427,1.707802,1.691052
2020-11-15 23:02:38.454,1.582298,1.705552,1.714802,1.691052
2020-11-15 23:02:38.471,1.581423,1.705302,1.718052,1.690802
2020-11-15 23:02:38.489,1.582423,1.702927,1.714677,1.692052
2020-11-15 23:02:38.506,1.582048,1.693802,1.714052,1.693927
2020-11-15 23:02:38.523,1.582548,1.696927,1.705552,1.692177
2020-11-15 23:02:38.540,1.585798,1.698427,1.706177,1.691927
2020-11-15 23:02:38.557,1.583048,1.704552,1.707552,1.691302
2020-11-15 23:02:38.574,1.583048,1.706427,1.711677,1.691552
2020-11-15 23:02:38.591,1.581923,1.705052,1.720302,1.691927
2020-11-15 23:02:38.608,1.581673,1.698927,1.714802,1.693927
2020-11-15 23:02:38.625,1.581423,1.694302,1.712552,1.693052
2020-11-15 23:02:38.642,1.582673,1.698052,1.702802,1.692802
2020-11-15 23:02:38.659,1.585673,1.701052,1.706677,1.691677
2020-11-15 23:02:38.676,1.582548,1.710302,1.707677,1.690927
2020-11-15 23:02:38.693,1.581923,1.706427,1.718052,1.691552
2020-11-15 23:02:38.710,1.581798,1.704552,1.715427,1.691927
2020-11-15 23:02:38.727,1.581923,1.697302,1.714677,1.693427
2020-11-15 23:02:38.744,1.582173,1.695677,1.709427,1.692677
2020-11-15 23:02:38.761,1.584548,1.698302,1.701302,1.692177
2020-11-15 23:02:38.778,1.582923,1.701177,1.707927,1.691177
2020-11-15 23:02:38.795,1.583048,1.710552,1.709552,1.690802
2020-11-15 23:02:38.812,1.581673,1.704927,1.719177,1.691552
2020-11-15 23:02:38.829,1.580798,1.701677,1.714427,1.693177
2020-11-15 23:02:38.846,1.582048,1.692802,1.713677,1.693177
2020-11-15 23:02:38.863,1.581923,1.697802,1.708052,1.692927
2020-11-15 23:02:38.880,1.584673,1.699052,1.702927,1.691677
2020-11-15 23:02:38.897,1.583423,1.707802,1.707177,1.691177
2020-11-15 23:02:38.914,1.583048,1.705552,1.709927,1.691427
2020-11-15 23:02:38.931,1.581173,1.705677,1.719427,1.692052
2020-11-15 23:02:38.948,1.582423,1.700552,1.714552,1.693052
2020-11-15 23:02:38.965,1.582173,1.692302,1.711802,1.692802
2020-11-15 23:02:38.982,1.582923,1.698052,1.702427,1.692677
2020-11-15 23:02:38.999,1.584423,1.699052,1.706552,1.691427
2020-11-15 23:02:39.016,1.583048,1.708552,1.708052,1.690052
2020-11-15 23:02:39.033,1.582923,1.706427,1.714927,1.690427
2020-11-15 23:02:39.050,1.582423,1.705177,1.717552,1.691552
2020-11-15 23:02:39.067,1.581298,1.694927,1.713927,1.694302
2020-11-15 23:02:39.084,1.581673,1.697427,1.710802,1.691927
2020-11-15 23:02:39.101,1.583798,1.698302,1.702052,1.692177
2020-11-15 23:02:39.118,1.584423,1.703302,1.706677,1.691052
2020-11-15 23:02:39.135,1.582923,1.710427,1.706677,1.691177
2020-11-15 23:02:39.152,1.583173,1.705427,1.716427,1.691802
2020-11-15 23:02:39.169,1.581298,1.703427,1.715052,1.692302
2020-11-15 23:02:39.186,1.581923,1.694427,1.714052,1.693802
2020-11-15 23:02:39.203,1.581798,1.697052,1.705677,1.692677
2020-11-15 23:02:39.220,1.586048,1.697802,1.707177,1.692927
2020-11-15 23:02:39.237,1.583548,1.704802,1.708052,1.690677
2020-11-15 23:02:39.254,1.582798,1.708927,1.711427,1.690927
2020-11-15 23:02:39.271,1.582173,1.704177,1.720803,1.691927
2020-11-15 23:02:39.288,1.581173,1.698802,1.714302,1.693677
2020-11-15 23:02:39.305,1.581923,1.692677,1.713927,1.693052
2020-11-15 23:02:39.324,1.582048,1.698427,1.709302,1.693177
2020-11-15 23:02:39.341,1.584548,1.698927,1.701177,1.692552
2020-11-15 23:02:39.358,1.582798,1.705927,1.707052,1.691177
2020-11-15 23:02:39.375,1.583548,1.707052,1.709177,1.691927
2020-11-15 23:02:39.392,1.582048,1.705802,1.718802,1.691552
2020-11-15 23:02:39.409,1.581173,1.701677,1.714927,1.692927
2020-11-15 23:02:39.426,1.581798,1.692677,1.712677,1.692927
2020-11-15 23:02:39.443,1.583548,1.697927,1.703427,1.692052
2020-11-15 23:02:39.460,1.586048,1.698177,1.706927,1.692052
2020-11-15 23:02:39.477,1.583048,1.707302,1.707802,1.690177
2020-11-15 23:02:39.494,1.582048,1.705927,1.713552,1.691802
2020-11-15 23:02:39.511,1.581423,1.704177,1.718552,1.691927
2020-11-15 23:02:39.528,1.581798,1.700052,1.714302,1.694302
2020-11-15 23:02:39.545,1.582673,1.697177,1.711927,1.692677
2020-11-15 23:02:39.562,1.582548,1.698552,1.702552,1.692802
2020-11-15 23:02:39.579,1.584798,1.699302,1.706927,1.691677
2020-11-15 23:02:39.596,1.583048,1.708802,1.708302,1.690302
2020-11-15 23:02:39.613,1.582798,1.705552,1.715302,1.690677
2020-11-15 23:02:39.630,1.581798,1.704552,1.717677,1.692427
2020-11-15 23:02:39.647,1.581298,1.694677,1.713927,1.693802
2020-11-15 23:02:39.664,1.581798,1.697302,1.710427,1.692427
2020-11-15 23:02:39.681,1.583923,1.698427,1.701427,1.692427
2020-11-15 23:02:39.698,1.583048,1.703677,1.706802,1.691052
2020-11-15 23:02:39.715,1.582298,1.711052,1.708302,1.691427
2020-11-15 23:02:39.732,1.581923,1.705677,1.717052,1.691677
2020-11-15 23:02:39.749,1.581548,1.703302,1.715177,1.692802
2020-11-15 23:02:39.766,1.581798,1.693802,1.713552,1.693177
2020-11-15 23:02:39.783,1.582298,1.697427,1.705302,1.692802
2020-11-15 23:02:39.800,1.585673,1.698677,1.706677,1.691802
2020-11-15 23:02:39.817,1.583423,1.704177,1.707802,1.690552
2020-11-15 23:02:39.834,1.582798,1.708677,1.711677,1.690802
2020-11-15 23:02:39.851,1.582548,1.705052,1.721053,1.692302
2020-11-15 23:02:39.868,1.581548,1.698927,1.714802,1.694302
2020-11-15 23:02:39.885,1.581423,1.693802,1.712427,1.693177
2020-11-15 23:02:39.902,1.582423,1.698927,1.703677,1.692802
2020-11-15 23:02:39.919,1.585048,1.701427,1.706177,1.691802
2020-11-15 23:02:39.936,1.582798,1.710302,1.707427,1.691302
2020-11-15 23:02:39.953,1.582798,1.706302,1.712552,1.691177
2020-11-15 23:02:39.970,1.581548,1.704927,1.715427,1.692677
2020-11-15 23:02:39.987,1.582423,1.696927,1.714302,1.693677
2020-11-15 23:02:40.004,1.581923,1.696177,1.709927,1.692552
2020-11-15 23:02:40.021,1.584298,1.698552,1.701552,1.692552
2020-11-15 23:02:40.038,1.583423,1.701677,1.707677,1.691052
2020-11-15 23:02:40.055,1.582673,1.710677,1.709802,1.690802
2020-11-15 23:02:40.072,1.582423,1.705302,1.719552,1.690927
2020-11-15 23:02:40.089,1.581923,1.702052,1.714802,1.693677
2020-11-15 23:02:40.106,1.581923,1.692552,1.713927,1.693552
2020-11-15 23:02:40.123,1.581673,1.697677,1.707302,1.692177
2020-11-15 23:02:40.141,1.583548,1.698927,1.702052,1.692552
2020-11-15 23:02:40.158,1.583798,1.702177,1.706427,1.691177
2020-11-15 23:02:40.175,1.583798,1.712177,1.707927,1.691177
2020-11-15 23:02:40.192,1.582173,1.705302,1.715552,1.691677
2020-11-15 23:02:40.209,1.581423,1.703677,1.715927,1.691927
2020-11-15 23:02:40.226,1.581673,1.695052,1.713927,1.693927
2020-11-15 23:02:40.243,1.582173,1.697677,1.706052,1.692927
2020-11-15 23:02:40.260,1.585423,1.698052,1.705802,1.692677
2020-11-15 23:02:40.277,1.583048,1.704052,1.707677,1.690802
2020-11-15 23:02:40.294,1.583673,1.709177,1.711552,1.691177
2020-11-15 23:02:40.311,1.582298,1.704552,1.721428,1.691177
2020-11-15 23:02:40.328,1.582298,1.702427,1.715052,1.692302
2020-11-15 23:02:40.345,1.581423,1.692802,1.713427,1.692927
2020-11-15 23:02:40.362,1.582673,1.698052,1.704302,1.692802
2020-11-15 23:02:40.379,1.585923,1.700677,1.706677,1.691927
2020-11-15 23:02:40.396,1.583298,1.710052,1.707677,1.691177
2020-11-15 23:02:40.413,1.583798,1.706177,1.712302,1.692177
2020-11-15 23:02:40.430,1.581673,1.705177,1.720177,1.692552
2020-11-15 23:02:40.447,1.581423,1.698177,1.714177,1.693552
2020-11-15 23:02:40.464,1.582298,1.695677,1.710177,1.692427
2020-11-15 23:02:40.481,1.584798,1.698177,1.700927,1.692177
2020-11-15 23:02:40.498,1.582923,1.702177,1.708427,1.691052
2020-11-15 23:02:40.515,1.582923,1.710302,1.709302,1.690552
2020-11-15 23:02:40.532,1.581673,1.705552,1.719177,1.691927
2020-11-15 23:02:40.549,1.582548,1.701927,1.715052,1.692677
2020-11-15 23:02:40.566,1.581798,1.693052,1.714052,1.693052
2020-11-15 23:02:40.583,1.582173,1.697552,1.708802,1.693302
2020-11-15 23:02:40.600,1.584548,1.699302,1.702427,1.692677
2020-11-15 23:02:40.617,1.583173,1.707052,1.707427,1.690927
2020-11-15 23:02:40.634,1.583423,1.706552,1.710177,1.691552
2020-11-15 23:02:40.651,1.582173,1.705302,1.718927,1.691927
2020-11-15 23:02:40.668,1.581298,1.701177,1.714052,1.693302
2020-11-15 23:02:40.685,1.581923,1.692302,1.712177,1.692677
2020-11-15 23:02:40.702,1.583548,1.698052,1.703177,1.692427
2020-11-15 23:02:40.719,1.584798,1.699927,1.706552,1.691927
2020-11-15 23:02:40.736,1.583423,1.708552,1.708802,1.689927
2020-11-15 23:02:40.753,1.582048,1.705302,1.714677,1.691052
2020-11-15 23:02:40.770,1.582048,1.704177,1.717677,1.692427
2020-11-15 23:02:40.787,1.581798,1.695302,1.714302,1.693677
2020-11-15 23:02:40.804,1.580548,1.697177,1.710802,1.692677
2020-11-15 23:02:40.821,1.583298,1.698552,1.701177,1.692177
2020-11-15 23:02:40.838,1.583798,1.703052,1.707052,1.690552
2020-11-15 23:02:40.855,1.582173,1.711677,1.707927,1.691677
2020-11-15 23:02:40.872,1.582673,1.705302,1.720052,1.691552
2020-11-15 23:02:40.889,1.581423,1.703552,1.715177,1.692052
2020-11-15 23:02:40.906,1.582298,1.693552,1.713427,1.693552
2020-11-15 23:02:40.923,1.581923,1.696802,1.705302,1.691927
2020-11-15 23:02:40.940,1.585048,1.698427,1.706302,1.691677
2020-11-15 23:02:40.957,1.583423,1.699677,1.707302,1.691177
2020-11-15 23:02:40.975,1.582298,1.709927,1.708677,1.690802
2020-11-15 23:02:40.992,1.582048,1.705302,1.718302,1.691927
2020-11-15 23:02:41.009,1.582048,1.702427,1.714802,1.692427
2020-11-15 23:02:41.026,1.581798,1.693802,1.714302,1.693052
2020-11-15 23:02:41.043,1.581923,1.697552,1.709052,1.693177
2020-11-15 23:02:41.060,1.585298,1.699177,1.701302,1.692177
2020-11-15 23:02:41.077,1.583673,1.705427,1.706927,1.690802
2020-11-15 23:02:41.094,1.582673,1.707802,1.709427,1.691927
2020-11-15 23:02:41.111,1.581548,1.705302,1.720803,1.691677
2020-11-15 23:02:41.128,1.581048,1.701677,1.714302,1.692927
2020-11-15 23:02:41.145,1.582173,1.692302,1.711927,1.692427
2020-11-15 23:02:41.162,1.582423,1.697677,1.703177,1.692302
2020-11-15 23:02:41.179,1.584798,1.698802,1.706677,1.690927
2020-11-15 23:02:41.196,1.583173,1.708052,1.708052,1.690302
2020-11-15 23:02:41.213,1.581923,1.705427,1.714052,1.691552
2020-11-15 23:02:41.230,1.581548,1.704552,1.717927,1.692677
2020-11-15 23:02:41.247,1.580923,1.695927,1.714552,1.694302
2020-11-15 23:02:41.264,1.582048,1.698052,1.711302,1.692427
2020-11-15 23:02:41.281,1.583423,1.698552,1.702302,1.692927
2020-11-15 23:02:41.298,1.584548,1.702177,1.706552,1.691552
2020-11-15 23:02:41.315,1.583048,1.712302,1.710427,1.691427
2020-11-15 23:02:41.332,1.581173,1.704927,1.719802,1.691177
2020-11-15 23:02:41.349,1.581423,1.703052,1.715302,1.691927
2020-11-15 23:02:41.366,1.581423,1.694177,1.713552,1.693927
2020-11-15 23:02:41.383,1.582673,1.697052,1.707052,1.692802
2020-11-15 23:02:41.400,1.585298,1.697927,1.705177,1.691802
2020-11-15 23:02:41.417,1.583923,1.702802,1.707802,1.690552
2020-11-15 23:02:41.434,1.582298,1.709677,1.711302,1.691927
2020-11-15 23:02:41.451,1.581673,1.704802,1.720428,1.690927
2020-11-15 23:02:41.468,1.581173,1.699927,1.714552,1.693677
2020-11-15 23:02:41.485,1.581548,1.692552,1.713052,1.693552
2020-11-15 23:02:41.502,1.581798,1.698427,1.704677,1.692927
2020-11-15 23:02:41.519,1.584673,1.701052,1.706802,1.692052
2020-11-15 23:02:41.536,1.582673,1.709927,1.707177,1.691052
2020-11-15 23:02:41.553,1.583173,1.705927,1.717427,1.691552
2020-11-15 23:02:41.570,1.581423,1.704677,1.715302,1.692052
2020-11-15 23:02:41.587,1.582173,1.698052,1.714052,1.694177
2020-11-15 23:02:41.604,1.581673,1.694427,1.709927,1.692677
2020-11-15 23:02:41.621,1.584173,1.697802,1.701302,1.692302
2020-11-15 23:02:41.638,1.583298,1.700802,1.707677,1.691302
2020-11-15 23:02:41.655,1.582673,1.710177,1.709052,1.691302
2020-11-15 23:02:41.672,1.581548,1.705552,1.719052,1.692302
2020-11-15 23:02:41.689,1.580798,1.701927,1.715427,1.693052
2020-11-15 23:02:41.706,1.581298,1.693552,1.713427,1.693302
2020-11-15 23:02:41.723,1.582048,1.698052,1.707927,1.692927
2020-11-15 23:02:41.740,1.584423,1.698927,1.702052,1.692177
2020-11-15 23:02:41.757,1.583173,1.707052,1.707052,1.691052
2020-11-15 23:02:41.774,1.581798,1.706052,1.713302,1.690427
2020-11-15 23:02:41.792,1.582673,1.705177,1.719802,1.691552
2020-11-15 23:02:41.809,1.582048,1.704302,1.715302,1.691802
2020-11-15 23:02:41.826,1.581423,1.694802,1.713427,1.693802
2020-11-15 23:02:41.843,1.582048,1.697052,1.706677,1.691677
2020-11-15 23:02:41.860,1.585298,1.698427,1.704802,1.691927
2020-11-15 23:02:41.878,1.583173,1.703052,1.707927,1.691302
2020-11-15 23:02:41.895,1.582673,1.710927,1.711052,1.691177
2020-11-15 23:02:41.912,1.581673,1.705177,1.720177,1.692052
2020-11-15 23:02:41.929,1.581548,1.702927,1.715177,1.692552
2020-11-15 23:02:41.946,1.581048,1.693177,1.714052,1.693052
2020-11-15 23:02:41.963,1.582423,1.696802,1.705302,1.692052
2020-11-15 23:02:41.980,1.586048,1.697677,1.706552,1.691552
2020-11-15 23:02:41.997,1.582923,1.704552,1.707677,1.691177
2020-11-15 23:02:42.014,1.582548,1.706427,1.711677,1.692427
2020-11-15 23:02:42.031,1.581298,1.704677,1.720803,1.691552
2020-11-15 23:02:42.048,1.581048,1.699302,1.714177,1.693552
2020-11-15 23:02:42.065,1.581298,1.693927,1.712552,1.693052
2020-11-15 23:02:42.082,1.581673,1.698427,1.703177,1.692927
2020-11-15 23:02:42.099,1.584298,1.701427,1.705677,1.691802
2020-11-15 23:02:42.116,1.582673,1.710802,1.708802,1.691302
2020-11-15 23:02:42.133,1.581548,1.705552,1.717802,1.690677
2020-11-15 23:02:42.150,1.581798,1.704427,1.715177,1.691802
2020-11-15 23:02:42.167,1.581173,1.696802,1.713427,1.693427
2020-11-15 23:02:42.184,1.581923,1.695802,1.709302,1.692177
2020-11-15 23:02:42.201,1.584423,1.698052,1.702052,1.690552
2020-11-15 23:02:42.218,1.581923,1.706802,1.707177,1.691552
2020-11-15 23:02:42.235,1.582673,1.706802,1.709927,1.691302
2020-11-15 23:02:42.252,1.581798,1.705427,1.719802,1.692302
2020-11-15 23:02:42.269,1.581673,1.701677,1.714927,1.693177
2020-11-15 23:02:42.286,1.581173,1.692677,1.712802,1.692802
2020-11-15 23:02:42.303,1.581423,1.697552,1.706427,1.692552
2020-11-15 23:02:42.320,1.583548,1.698927,1.706802,1.691802
2020-11-15 23:02:42.337,1.583173,1.708177,1.708427,1.690927
2020-11-15 23:02:42.354,1.582298,1.705677,1.714177,1.691677
2020-11-15 23:02:42.371,1.581673,1.704427,1.718177,1.691177
2020-11-15 23:02:42.388,1.581423,1.700052,1.714052,1.692677
2020-11-15 23:02:42.405,1.581673,1.692052,1.711302,1.692302
2020-11-15 23:02:42.422,1.583298,1.697552,1.702552,1.692177
2020-11-15 23:02:42.439,1.585798,1.702927,1.707052,1.691177
2020-11-15 23:02:42.456,1.582923,1.711927,1.707802,1.691677
2020-11-15 23:02:42.473,1.581923,1.705177,1.715552,1.691927
2020-11-15 23:02:42.490,1.581173,1.703552,1.715052,1.692302
2020-11-15 23:02:42.507,1.581923,1.694677,1.713802,1.694052
2020-11-15 23:02:42.524,1.581423,1.697802,1.709427,1.693052
2020-11-15 23:02:42.541,1.583548,1.699177,1.706177,1.692677
2020-11-15 23:02:42.558,1.583798,1.703802,1.707927,1.691927
2020-11-15 23:02:42.575,1.583298,1.710552,1.711052,1.691427
2020-11-15 23:02:42.592,1.582923,1.705427,1.720302,1.690552
2020-11-15 23:02:42.609,1.581673,1.703677,1.715177,1.691302
2020-11-15 23:02:42.627,1.581548,1.697302,1.713802,1.693302
2020-11-15 23:02:42.644,1.582048,1.694427,1.709427,1.692677
2020-11-15 23:02:42.661,1.584798,1.698427,1.701302,1.692177
2020-11-15 23:02:42.678,1.582798,1.705427,1.707052,1.691177
2020-11-15 23:02:42.695,1.583173,1.708052,1.709552,1.691302
2020-11-15 23:02:42.712,1.581923,1.705052,1.718552,1.691177
2020-11-15 23:02:42.729,1.580923,1.701677,1.714802,1.693177
2020-11-15 23:02:42.746,1.581048,1.691802,1.713302,1.692677
2020-11-15 23:02:42.763,1.581298,1.697302,1.706677,1.692552
2020-11-15 23:02:42.780,1.584673,1.699052,1.707177,1.692052
2020-11-15 23:02:42.797,1.583423,1.707677,1.708427,1.691427
2020-11-15 23:02:42.814,1.583048,1.705927,1.713552,1.691552
2020-11-15 23:02:42.831,1.581923,1.704677,1.718802,1.691302
2020-11-15 23:02:42.848,1.582423,1.700302,1.714302,1.692802
2020-11-15 23:02:42.865,1.581048,1.691052,1.712052,1.693302
2020-11-15 23:02:42.882,1.583298,1.698427,1.701927,1.692552
2020-11-15 23:02:42.899,1.584423,1.703052,1.707177,1.691427
2020-11-15 23:02:42.916,1.583048,1.712052,1.709052,1.691427
2020-11-15 23:02:42.933,1.581673,1.705302,1.715677,1.691677
2020-11-15 23:02:42.950,1.581423,1.703177,1.716677,1.692677
2020-11-15 23:02:42.967,1.581548,1.694552,1.713302,1.693927
2020-11-15 23:02:42.984,1.581423,1.697927,1.709802,1.692677
2020-11-15 23:02:43.001,1.584298,1.698552,1.705427,1.692177
2020-11-15 23:02:43.018,1.583048,1.703677,1.707802,1.691052
2020-11-15 23:02:43.035,1.583548,1.710052,1.710677,1.691427
2020-11-15 23:02:43.052,1.581798,1.705052,1.721178,1.691052
2020-11-15 23:02:43.069,1.581048,1.702052,1.714302,1.692802
2020-11-15 23:02:43.086,1.581798,1.693302,1.713177,1.692927
2020-11-15 23:02:43.103,1.582548,1.697052,1.704552,1.691802
2020-11-15 23:02:43.120,1.586298,1.700927,1.706552,1.691927
2020-11-15 23:02:43.137,1.583298,1.710052,1.707677,1.690177
2020-11-15 23:02:43.154,1.583048,1.706802,1.711802,1.691177
2020-11-15 23:02:43.171,1.581798,1.704927,1.720803,1.691927
2020-11-15 23:02:43.188,1.581048,1.697802,1.713427,1.694177
2020-11-15 23:02:43.205,1.581048,1.695302,1.711927,1.692802
2020-11-15 23:02:43.222,1.582298,1.698427,1.701677,1.692552
2020-11-15 23:02:43.239,1.584548,1.700552,1.708052,1.691552
2020-11-15 23:02:43.256,1.582798,1.711427,1.709177,1.691052
2020-11-15 23:02:43.273,1.581798,1.705427,1.718802,1.691552
2020-11-15 23:02:43.290,1.581423,1.705177,1.716052,1.692177
2020-11-15 23:02:43.307,1.581548,1.696177,1.713552,1.693677
2020-11-15 23:02:43.324,1.581548,1.696802,1.709052,1.692177
2020-11-15 23:02:43.341,1.585048,1.697427,1.702427,1.692052
2020-11-15 23:02:43.358,1.583548,1.706927,1.708052,1.691427
2020-11-15 23:02:43.375,1.582548,1.706177,1.709927,1.691552
2020-11-15 23:02:43.392,1.582173,1.704927,1.719302,1.692052
2020-11-15 23:02:43.409,1.581423,1.700927,1.714427,1.693552
2020-11-15 23:02:43.426,1.581423,1.692052,1.712802,1.692427
2020-11-15 23:02:43.444,1.581423,1.697552,1.710427,1.692802
2020-11-15 23:02:43.461,1.583048,1.698177,1.701302,1.692802
2020-11-15 23:02:43.478,1.582798,1.703802,1.706427,1.691552
2020-11-15 23:02:43.495,1.582673,1.710677,1.707802,1.691677
2020-11-15 23:02:43.512,1.581673,1.705427,1.720553,1.691677
2020-11-15 23:02:43.529,1.581048,1.703052,1.715302,1.692677
2020-11-15 23:02:43.546,1.581173,1.693927,1.713427,1.693177
2020-11-15 23:02:43.563,1.582173,1.697177,1.704802,1.692052
2020-11-15 23:02:43.580,1.585548,1.698177,1.706677,1.691552
2020-11-15 23:02:43.597,1.582673,1.704177,1.708177,1.690427
2020-11-15 23:02:43.614,1.582173,1.708177,1.712177,1.691802
2020-11-15 23:02:43.631,1.581298,1.703927,1.721178,1.692052
2020-11-15 23:02:43.648,1.581923,1.698427,1.714177,1.693802
2020-11-15 23:02:43.665,1.581548,1.694927,1.712052,1.692802
2020-11-15 23:02:43.682,1.582548,1.698677,1.702552,1.692302
2020-11-15 23:02:43.699,1.584548,1.701552,1.705552,1.691427
2020-11-15 23:02:43.716,1.582423,1.711177,1.706927,1.691177
2020-11-15 23:02:43.733,1.582298,1.705927,1.718302,1.691552
2020-11-15 23:02:43.750,1.581548,1.704802,1.714927,1.692177
2020-11-15 23:02:43.767,1.581798,1.696302,1.713927,1.693302
2020-11-15 23:02:43.784,1.581298,1.696927,1.708802,1.692552
2020-11-15 23:02:43.801,1.585423,1.698427,1.702552,1.691927
2020-11-15 23:02:43.818,1.582923,1.701302,1.707427,1.690677
2020-11-15 23:02:43.835,1.582548,1.706177,1.710427,1.691802
2020-11-15 23:02:43.852,1.581423,1.705302,1.718802,1.691927
2020-11-15 23:02:43.869,1.581048,1.701177,1.715552,1.693427
2020-11-15 23:02:43.886,1.581423,1.692052,1.713302,1.692927
2020-11-15 23:02:43.903,1.582423,1.698427,1.706552,1.692302
2020-11-15 23:02:43.920,1.584923,1.699427,1.703802,1.692302
2020-11-15 23:02:43.937,1.582173,1.708677,1.706427,1.690802
2020-11-15 23:02:43.954,1.582298,1.705677,1.714927,1.691802
2020-11-15 23:02:43.971,1.582048,1.705302,1.717802,1.691552
2020-11-15 23:02:43.988,1.581548,1.700552,1.714052,1.693302
2020-11-15 23:02:44.005,1.582048,1.692552,1.711052,1.692802
2020-11-15 23:02:44.022,1.583173,1.697802,1.701927,1.692177
2020-11-15 23:02:44.039,1.583923,1.700302,1.707052,1.690927
2020-11-15 23:02:44.056,1.582673,1.709177,1.707677,1.690552
2020-11-15 23:02:44.073,1.581923,1.704802,1.716677,1.691927
2020-11-15 23:02:44.090,1.581298,1.704427,1.715927,1.692177
2020-11-15 23:02:44.107,1.581048,1.694177,1.714052,1.693927
2020-11-15 23:02:44.124,1.581798,1.697177,1.709677,1.692927
2020-11-15 23:02:44.141,1.584423,1.698552,1.700677,1.692302
2020-11-15 23:02:44.159,1.583298,1.704677,1.707177,1.691677
2020-11-15 23:02:44.176,1.582673,1.709802,1.708802,1.690552
2020-11-15 23:02:44.193,1.581923,1.705427,1.718302,1.691802
2020-11-15 23:02:44.210,1.581923,1.702302,1.715052,1.692927
2020-11-15 23:02:44.227,1.581923,1.692552,1.713552,1.693427
2020-11-15 23:02:44.244,1.582298,1.697552,1.708677,1.692677
2020-11-15 23:02:44.261,1.583673,1.696302,1.703302,1.693177
2020-11-15 23:02:44.279,1.584423,1.702302,1.706427,1.691302
2020-11-15 23:02:44.296,1.582923,1.712302,1.707927,1.691927
2020-11-15 23:02:44.313,1.581798,1.706052,1.714052,1.691677
2020-11-15 23:02:44.330,1.581173,1.703802,1.715427,1.692677
2020-11-15 23:02:44.347,1.580923,1.694677,1.713927,1.693677
2020-11-15 23:02:44.364,1.581673,1.697927,1.707427,1.692427
2020-11-15 23:02:44.381,1.584548,1.698927,1.704427,1.692177
2020-11-15 23:02:44.398,1.583298,1.702802,1.708302,1.691177
2020-11-15 23:02:44.415,1.582923,1.711177,1.710677,1.692052
2020-11-15 23:02:44.432,1.581673,1.704427,1.720803,1.692052
2020-11-15 23:02:44.449,1.581673,1.700677,1.714802,1.693802
2020-11-15 23:02:44.466,1.581298,1.692177,1.713927,1.692927
2020-11-15 23:02:44.483,1.582173,1.697927,1.705552,1.692677
2020-11-15 23:02:44.500,1.585423,1.700302,1.705552,1.692177
2020-11-15 23:02:44.517,1.583298,1.709302,1.707052,1.691177
2020-11-15 23:02:44.534,1.582423,1.706427,1.716302,1.691177
2020-11-15 23:02:44.551,1.581548,1.704927,1.715927,1.691927
2020-11-15 23:02:44.568,1.582173,1.698052,1.714427,1.692927
2020-11-15 23:02:44.585,1.580923,1.693802,1.710802,1.692802
2020-11-15 23:02:44.602,1.585048,1.697677,1.701302,1.692427
2020-11-15 23:02:44.619,1.583048,1.700677,1.707052,1.690552
2020-11-15 23:02:44.636,1.582923,1.709177,1.708927,1.691052
2020-11-15 23:02:44.653,1.582173,1.705052,1.717927,1.691802
2020-11-15 23:02:44.670,1.581798,1.701927,1.715052,1.692802
2020-11-15 23:02:44.687,1.581298,1.693302,1.713052,1.693177
2020-11-15 23:02:44.704,1.581673,1.697177,1.709427,1.692177
2020-11-15 23:02:44.721,1.583923,1.698302,1.700927,1.692677
2020-11-15 23:02:44.738,1.583173,1.706302,1.708302,1.691052
2020-11-15 23:02:44.755,1.582173,1.707052,1.712802,1.691552
2020-11-15 23:02:44.772,1.581798,1.705177,1.720177,1.691552
2020-11-15 23:02:44.789,1.581548,1.701427,1.715177,1.693052
2020-11-15 23:02:44.806,1.581923,1.691677,1.712052,1.692427
2020-11-15 23:02:44.823,1.582798,1.697052,1.703302,1.691927
2020-11-15 23:02:44.840,1.586173,1.698177,1.706677,1.691427
2020-11-15 23:02:44.857,1.582798,1.710927,1.707927,1.691177
2020-11-15 23:02:44.874,1.582298,1.705427,1.713927,1.691552
2020-11-15 23:02:44.891,1.581923,1.704302,1.717927,1.692677
2020-11-15 23:02:44.908,1.580798,1.694927,1.713802,1.693302
2020-11-15 23:02:44.925,1.580923,1.697302,1.710677,1.692802
2020-11-15 23:02:44.942,1.582798,1.698177,1.703177,1.692677
2020-11-15 23:02:44.959,1.583298,1.703052,1.707052,1.690677
2020-11-15 23:02:44.976,1.582923,1.711677,1.710427,1.691552
2020-11-15 23:02:44.993,1.581923,1.705177,1.720302,1.691177
2020-11-15 23:02:45.010,1.580673,1.703052,1.714177,1.692052
2020-11-15 23:02:45.027,1.581423,1.693677,1.713927,1.693427
2020-11-15 23:02:45.044,1.582298,1.696427,1.706302,1.692552
2020-11-15 23:02:45.061,1.585923,1.700177,1.706052,1.691927
2020-11-15 23:02:45.078,1.583173,1.709552,1.707177,1.690052
2020-11-15 23:02:45.096,1.583048,1.709802,1.708427,1.691927
2020-11-15 23:02:45.113,1.582798,1.704802,1.717927,1.691927
2020-11-15 23:02:45.130,1.581173,1.702177,1.714552,1.692927
2020-11-15 23:02:45.147,1.580423,1.693552,1.713427,1.693552
2020-11-15 23:02:45.164,1.581298,1.697177,1.708427,1.692552
2020-11-15 23:02:45.181,1.584298,1.698677,1.701177,1.692177
2020-11-15 23:02:45.198,1.583548,1.706052,1.706677,1.690802
2020-11-15 23:02:45.215,1.582048,1.707177,1.712302,1.691052
2020-11-15 23:02:45.232,1.581798,1.705302,1.720928,1.691677
2020-11-15 23:02:45.249,1.581923,1.701302,1.714177,1.692427
2020-11-15 23:02:45.266,1.581923,1.692052,1.712802,1.692677
2020-11-15 23:02:45.283,1.582423,1.696427,1.702177,1.692177
2020-11-15 23:02:45.300,1.585423,1.698552,1.707177,1.691052
2020-11-15 23:02:45.317,1.583173,1.707927,1.707802,1.691677
2020-11-15 23:02:45.334,1.582548,1.705677,1.713802,1.691927
2020-11-15 23:02:45.351,1.581798,1.704802,1.718302,1.692052
2020-11-15 23:02:45.368,1.581923,1.695177,1.713302,1.693927
2020-11-15 23:02:45.385,1.581423,1.697552,1.711302,1.692552
2020-11-15 23:02:45.402,1.583798,1.698927,1.701927,1.692802
2020-11-15 23:02:45.419,1.584423,1.702677,1.706802,1.691177
2020-11-15 23:02:45.436,1.582673,1.712052,1.707427,1.690927
2020-11-15 23:02:45.453,1.581923,1.705052,1.719302,1.691302
2020-11-15 23:02:45.470,1.581548,1.703427,1.715552,1.692052
2020-11-15 23:02:45.487,1.581423,1.694302,1.713802,1.693427
2020-11-15 23:02:45.504,1.582423,1.697052,1.705677,1.692552
2020-11-15 23:02:45.521,1.584798,1.698052,1.705677,1.691427
2020-11-15 23:02:45.538,1.583048,1.703677,1.707927,1.690677
2020-11-15 23:02:45.555,1.582923,1.709302,1.711177,1.691177
2020-11-15 23:02:45.572,1.581673,1.704802,1.720553,1.692052
2020-11-15 23:02:45.589,1.581173,1.699177,1.714052,1.693552
2020-11-15 23:02:45.606,1.582548,1.693802,1.712177,1.692677
2020-11-15 23:02:45.623,1.581548,1.698677,1.703177,1.693052
2020-11-15 23:02:45.640,1.586298,1.700802,1.706052,1.691677
2020-11-15 23:02:45.657,1.583423,1.710052,1.708302,1.690927
2020-11-15 23:02:45.674,1.582798,1.706177,1.717677,1.691052
2020-11-15 23:02:45.691,1.581298,1.704802,1.714802,1.692302
2020-11-15 23:02:45.708,1.582173,1.697177,1.713677,1.693302
2020-11-15 23:02:45.725,1.582048,1.695052,1.709552,1.692052
2020-11-15 23:02:45.742,1.585298,1.697927,1.701052,1.691927
2020-11-15 23:02:45.759,1.581548,1.701552,1.707677,1.690677
2020-11-15 23:02:45.776,1.583548,1.708427,1.709177,1.692177
2020-11-15 23:02:45.793,1.582048,1.705177,1.718802,1.691302
2020-11-15 23:02:45.810,1.581173,1.701677,1.714927,1.692927
2020-11-15 23:02:45.827,1.582423,1.692177,1.712552,1.693427
2020-11-15 23:02:45.844,1.582673,1.697927,1.707802,1.692427
2020-11-15 23:02:45.861,1.586298,1.698802,1.706552,1.692802
2020-11-15 23:02:45.878,1.583798,1.707802,1.707927,1.690552
2020-11-15 23:02:45.895,1.582798,1.706177,1.713052,1.691052
2020-11-15 23:02:45.912,1.582548,1.704052,1.719927,1.691302
2020-11-15 23:02:45.930,1.581798,1.703302,1.714802,1.692552
2020-11-15 23:02:45.947,1.581673,1.693927,1.713302,1.693052
2020-11-15 23:02:45.964,1.581923,1.696677,1.705677,1.692177
2020-11-15 23:02:45.981,1.586048,1.699427,1.705927,1.692427
2020-11-15 23:02:45.998,1.584298,1.708552,1.707427,1.691052
2020-11-15 23:02:46.015,1.583173,1.705552,1.711302,1.692052
2020-11-15 23:02:46.032,1.582173,1.704802,1.720052,1.691677
2020-11-15 23:02:46.049,1.581548,1.699052,1.713552,1.693427
2020-11-15 23:02:46.066,1.582173,1.693052,1.712802,1.692927
2020-11-15 23:02:46.083,1.582048,1.698302,1.701427,1.692427
2020-11-15 23:02:46.100,1.584423,1.700052,1.707302,1.691802
2020-11-15 23:02:46.117,1.583548,1.710302,1.708052,1.690552
2020-11-15 23:02:46.134,1.583048,1.705427,1.717427,1.691302
2020-11-15 23:02:46.151,1.581923,1.704052,1.715427,1.691177
2020-11-15 23:02:46.168,1.582548,1.697052,1.714052,1.693302
2020-11-15 23:02:46.185,1.581673,1.697677,1.710302,1.692802
2020-11-15 23:02:46.202,1.585548,1.698677,1.701052,1.692177
2020-11-15 23:02:46.219,1.584548,1.705927,1.707302,1.691052
2020-11-15 23:02:46.236,1.583673,1.708552,1.708802,1.691677
2020-11-15 23:02:46.253,1.582173,1.705302,1.718677,1.691677
2020-11-15 23:02:46.270,1.581298,1.702052,1.714052,1.692927
2020-11-15 23:02:46.287,1.582173,1.692302,1.712802,1.693177
2020-11-15 23:02:46.304,1.583673,1.696427,1.703427,1.693927
2020-11-15 23:02:46.321,1.586798,1.698802,1.706427,1.691802
2020-11-15 23:02:46.338,1.583048,1.707302,1.708302,1.690677
2020-11-15 23:02:46.355,1.582798,1.705802,1.713177,1.691302
2020-11-15 23:02:46.372,1.582423,1.704052,1.719052,1.691427
2020-11-15 23:02:46.389,1.581798,1.700552,1.714177,1.694427
2020-11-15 23:02:46.406,1.581548,1.697052,1.711427,1.692302
2020-11-15 23:02:46.423,1.583423,1.699177,1.702677,1.692302
2020-11-15 23:02:46.440,1.584923,1.702552,1.706677,1.691052
2020-11-15 23:02:46.457,1.583173,1.711427,1.708052,1.692427
2020-11-15 23:02:46.474,1.583298,1.705552,1.715427,1.690552
2020-11-15 23:02:46.492,1.582173,1.703927,1.717177,1.692177
2020-11-15 23:02:46.509,1.582298,1.694677,1.714427,1.693177
2020-11-15 23:02:46.526,1.581298,1.697302,1.710427,1.692427
2020-11-15 23:02:46.543,1.583798,1.698052,1.701427,1.692427
2020-11-15 23:02:46.560,1.583173,1.703052,1.706677,1.690302
2020-11-15 23:02:46.577,1.583423,1.710177,1.707677,1.691302
2020-11-15 23:02:46.594,1.582048,1.705177,1.716302,1.691177
2020-11-15 23:02:46.611,1.582173,1.702552,1.714177,1.692177
2020-11-15 23:02:46.628,1.582048,1.693427,1.713552,1.693427
2020-11-15 23:02:46.645,1.583048,1.697177,1.704802,1.692802
2020-11-15 23:02:46.662,1.586548,1.697927,1.706302,1.692177
2020-11-15 23:02:46.679,1.583423,1.704927,1.707927,1.690427
2020-11-15 23:02:46.696,1.583298,1.707802,1.711302,1.690802
2020-11-15 23:02:46.713,1.582423,1.704552,1.721178,1.691177
2020-11-15 23:02:46.730,1.581548,1.701177,1.714802,1.692552
2020-11-15 23:02:46.748,1.582048,1.695427,1.713677,1.692802
2020-11-15 23:02:46.765,1.582673,1.697302,1.708177,1.692802
2020-11-15 23:02:46.782,1.585423,1.698677,1.702427,1.692302
2020-11-15 23:02:46.799,1.583298,1.707427,1.706927,1.690677
2020-11-15 23:02:46.816,1.583298,1.705927,1.708927,1.691552
2020-11-15 23:02:46.833,1.582298,1.705052,1.719677,1.691177
2020-11-15 23:02:46.850,1.581798,1.700927,1.714927,1.693177
2020-11-15 23:02:46.867,1.581048,1.691677,1.711927,1.693052
2020-11-15 23:02:46.884,1.583923,1.698177,1.702552,1.692052
2020-11-15 23:02:46.901,1.585173,1.699552,1.706927,1.691302
2020-11-15 23:02:46.918,1.584173,1.708927,1.707802,1.689427
2020-11-15 23:02:46.935,1.583548,1.705552,1.714927,1.690677
2020-11-15 23:02:46.952,1.581798,1.704052,1.717052,1.691427
2020-11-15 23:02:46.969,1.582298,1.699677,1.714677,1.692927
2020-11-15 23:02:46.986,1.582298,1.697302,1.710177,1.692177
2020-11-15 23:02:47.003,1.584048,1.698677,1.701427,1.692177
2020-11-15 23:02:47.020,1.584048,1.703052,1.707177,1.691302
2020-11-15 23:02:47.037,1.582673,1.710427,1.707927,1.692052
2020-11-15 23:02:47.054,1.581923,1.705427,1.716677,1.691427
2020-11-15 23:02:47.071,1.582048,1.702427,1.714052,1.691552
2020-11-15 23:02:47.088,1.581673,1.693177,1.713802,1.693552
2020-11-15 23:02:47.105,1.583048,1.697302,1.704802,1.692427
2020-11-15 23:02:47.122,1.586173,1.698177,1.707177,1.691177
2020-11-15 23:02:47.139,1.584298,1.705052,1.707802,1.690052
2020-11-15 23:02:47.156,1.583048,1.707802,1.711427,1.691427
2020-11-15 23:02:47.173,1.582673,1.704927,1.721428,1.690677
2020-11-15 23:02:47.190,1.582048,1.701052,1.714302,1.693802
2020-11-15 23:02:47.207,1.582548,1.694677,1.712802,1.693052
2020-11-15 23:02:47.224,1.582923,1.698052,1.702927,1.692177
2020-11-15 23:02:47.241,1.586423,1.701427,1.706677,1.691302
2020-11-15 23:02:47.258,1.583048,1.710802,1.707552,1.691302
2020-11-15 23:02:47.275,1.583048,1.705427,1.712302,1.691427
2020-11-15 23:02:47.292,1.581298,1.704177,1.717927,1.692052
2020-11-15 23:02:47.309,1.582048,1.696052,1.713677,1.693552
2020-11-15 23:02:47.326,1.582673,1.696427,1.708552,1.692427
2020-11-15 23:02:47.343,1.585923,1.698552,1.702677,1.692302
2020-11-15 23:02:47.360,1.583798,1.702052,1.707552,1.690552
2020-11-15 23:02:47.377,1.583298,1.710427,1.709302,1.690677
2020-11-15 23:02:47.394,1.581923,1.705177,1.719927,1.690927
2020-11-15 23:02:47.411,1.582048,1.703302,1.715052,1.693302
2020-11-15 23:02:47.428,1.582048,1.692177,1.713677,1.692302
2020-11-15 23:02:47.445,1.582423,1.697802,1.706927,1.692427
2020-11-15 23:02:47.462,1.585548,1.699677,1.704427,1.692177
2020-11-15 23:02:47.479,1.583798,1.708552,1.706927,1.690427
2020-11-15 23:02:47.496,1.584048,1.706677,1.710927,1.691427
2020-11-15 23:02:47.513,1.581548,1.704427,1.720052,1.691302
2020-11-15 23:02:47.530,1.581048,1.700177,1.713677,1.693802
2020-11-15 23:02:47.547,1.582673,1.692802,1.711052,1.692427
2020-11-15 23:02:47.564,1.584048,1.696802,1.705177,1.692802
2020-11-15 23:02:47.582,1.587298,1.698177,1.706927,1.691552
2020-11-15 23:02:47.599,1.583673,1.705052,1.708052,1.690427
2020-11-15 23:02:47.616,1.582673,1.708052,1.712302,1.690802
2020-11-15 23:02:47.633,1.582173,1.704552,1.721053,1.690552
2020-11-15 23:02:47.650,1.581798,1.700677,1.714302,1.693427
2020-11-15 23:02:47.667,1.582048,1.694177,1.712177,1.692802
2020-11-15 23:02:47.684,1.583048,1.697927,1.703677,1.692677
2020-11-15 23:02:47.701,1.586048,1.701177,1.706052,1.691177
2020-11-15 23:02:47.718,1.583048,1.710677,1.707552,1.691427
2020-11-15 23:02:47.735,1.582923,1.705552,1.712427,1.691927
2020-11-15 23:02:47.752,1.582173,1.704177,1.715677,1.692302
2020-11-15 23:02:47.769,1.582298,1.696427,1.713677,1.693677
2020-11-15 23:02:47.786,1.582548,1.697052,1.708802,1.692802
2020-11-15 23:02:47.803,1.585548,1.698302,1.701927,1.692802
2020-11-15 23:02:47.820,1.584048,1.701552,1.708427,1.690927
2020-11-15 23:02:47.837,1.583048,1.710427,1.710677,1.691052
2020-11-15 23:02:47.854,1.582298,1.704302,1.719427,1.691677
2020-11-15 23:02:47.871,1.581798,1.701427,1.714802,1.693552
2020-11-15 23:02:47.888,1.581923,1.692177,1.713427,1.692677
2020-11-15 23:02:47.905,1.581673,1.697677,1.706177,1.692302
2020-11-15 23:02:47.922,1.585673,1.699177,1.704052,1.691802
2020-11-15 23:02:47.939,1.583798,1.709302,1.706927,1.690927
2020-11-15 23:02:47.956,1.583173,1.706177,1.710552,1.691677
2020-11-15 23:02:47.973,1.581548,1.704927,1.717552,1.691302
2020-11-15 23:02:47.990,1.581423,1.700427,1.714802,1.693052
2020-11-15 23:02:48.007,1.582298,1.691802,1.710927,1.692427
2020-11-15 23:02:48.024,1.584923,1.697677,1.701302,1.692302
2020-11-15 23:02:48.041,1.584173,1.699927,1.707302,1.691177
2020-11-15 23:02:48.058,1.583923,1.708802,1.707802,1.690802
2020-11-15 23:02:48.075,1.582798,1.705802,1.716552,1.691427
2020-11-15 23:02:48.092,1.581673,1.702927,1.715177,1.692552
2020-11-15 23:02:48.109,1.582548,1.693802,1.714052,1.693177
2020-11-15 23:02:48.126,1.581048,1.697177,1.709677,1.692302
2020-11-15 23:02:48.143,1.584423,1.698052,1.701302,1.692177
2020-11-15 23:02:48.160,1.583298,1.704677,1.706427,1.690927
2020-11-15 23:02:48.177,1.584048,1.708677,1.708552,1.691052
2020-11-15 23:02:48.194,1.582548,1.704927,1.720302,1.691802
2020-11-15 23:02:48.211,1.581923,1.702302,1.713802,1.692677
2020-11-15 23:02:48.228,1.582173,1.693052,1.712927,1.692552
2020-11-15 23:02:48.245,1.583298,1.697302,1.703677,1.692052
2020-11-15 23:02:48.262,1.585923,1.698052,1.706302,1.691677
2020-11-15 23:02:48.279,1.583673,1.705802,1.707427,1.690302
2020-11-15 23:02:48.296,1.583423,1.705677,1.712052,1.692302
2020-11-15 23:02:48.313,1.582173,1.704427,1.719552,1.691677
2020-11-15 23:02:48.330,1.582673,1.701302,1.713802,1.692677
2020-11-15 23:02:48.347,1.581798,1.691927,1.711052,1.691927
2020-11-15 23:02:48.364,1.583673,1.698552,1.702552,1.692302
2020-11-15 23:02:48.381,1.585923,1.698677,1.707302,1.691302
2020-11-15 23:02:48.400,1.584173,1.703052,1.706802,1.690677
2020-11-15 23:02:48.417,1.583673,1.710677,1.710802,1.690427
2020-11-15 23:02:48.434,1.582548,1.704802,1.720678,1.690427
2020-11-15 23:02:48.451,1.581423,1.701927,1.714802,1.691677
2020-11-15 23:02:48.468,1.581923,1.692552,1.713427,1.692927
2020-11-15 23:02:48.485,1.582923,1.698302,1.705052,1.692552
2020-11-15 23:02:48.502,1.585923,1.700177,1.706427,1.691177
2020-11-15 23:02:48.519,1.583298,1.710302,1.707552,1.691177
2020-11-15 23:02:48.536,1.583173,1.705802,1.711927,1.691177
2020-11-15 23:02:48.553,1.581673,1.703927,1.720803,1.691302
2020-11-15 23:02:48.570,1.581548,1.698177,1.713677,1.693302
2020-11-15 23:02:48.587,1.581673,1.694302,1.711552,1.692302
2020-11-15 23:02:48.604,1.583173,1.697677,1.701302,1.691802
2020-11-15 23:02:48.621,1.583798,1.700552,1.706927,1.691177
2020-11-15 23:02:48.638,1.582923,1.710302,1.709177,1.690677
2020-11-15 23:02:48.655,1.583048,1.705427,1.718427,1.690802
2020-11-15 23:02:48.672,1.581548,1.703802,1.715302,1.691427
2020-11-15 23:02:48.689,1.581923,1.696302,1.713802,1.693552
2020-11-15 23:02:48.706,1.582548,1.696677,1.709427,1.692427
2020-11-15 23:02:48.723,1.585423,1.698052,1.702302,1.692052
2020-11-15 23:02:48.740,1.583048,1.706677,1.707177,1.690927
